0.000989394
-0.000234659
-0.00204619
-0.0039198
-0.00500588
-0.00436246
-0.00135275
0.00389725
0.0101663
0.0151451
0.01594
0.0100789
-0.00319635
-0.0217842
-0.040273
-0.0506664
-0.0444618
-0.0157779
0.0353182
0.100521
0.163301
0.202056
0.196262
0.134372
0.0210644
-0.119037
-0.243666
-0.302338
-0.251725
-0.0733737
0.211752
0.537915
0.803029
0.892067
0.712101
0.230903
-0.492018
-1.29341
-1.92146
-2.07974
-1.4934
0.0171066
2.47399
5.71094
9.38612
13.0419
16.2005
18.4744
19.6619
19.8015
19.1663
18.1964
17.3836
17.1382
17.6747
18.9491
20.6688
22.3743
23.5739
23.8932
23.1975
21.6505
19.6905
17.9263
16.9794
17.3149
19.1063
22.1722
26.0035
29.8758
33.018
34.7957
34.8621
33.2385
30.3054
26.7076
23.1971
20.4544
18.9315
18.7543
19.7075
21.3036
22.9161
23.9451
23.9704
22.8569
20.784
18.1948
15.678
13.8156
13.0353
13.508
15.1149
17.4905
20.1281
22.5137
24.2511
25.143
25.2072
24.6305
23.6786
22.5974
21.5381
20.5316
19.5186
18.4205
17.2221
16.0307
15.0855
14.7047
15.1832
16.6699
19.0657
21.98
24.7683
26.6541
26.9081
25.0455
20.9893
15.1551
8.43042
2.04561
-2.64043
-4.39517
-2.35422
3.80181
13.7728
26.6817
41.224
55.8908
69.2202
80.0247
87.5532
91.562
92.2873
90.3375
86.5318
81.7271
76.6645
71.8665
67.5935
63.8606
60.4992
57.2432
53.8184
50.0158
45.7389
41.0209
36.0138
30.9576
26.1372
21.8368
18.2982
15.6882
14.0783
13.4385
13.6447
14.4973
15.7488
17.136
18.4109
19.3678
19.8618
19.8174
19.2289
18.1519
16.6911
14.9859
13.1961
11.4884
10.0242
8.94694
8.36947
8.35983
8.92887
10.0211
11.5126
13.2196
14.9174
16.3713
17.3727
17.7763
17.5295
16.6878
15.4115
13.9427
12.5664
11.562
11.1553
11.4791
12.5494
14.2624
16.411
18.7172
20.8758
22.5996
23.6618
23.9277
23.3729
22.0848
20.2481
18.1168
15.9752
14.0951
12.6947
11.9068
11.7613
12.1845
13.0177
14.0489
15.0544
15.8403
16.278
16.3269
16.0405
15.555
15.0636
14.7798
14.8958
15.5427
16.7598
18.4773
20.5197
22.6287
24.5073
25.8766
26.5363
26.416
25.6026
24.3357
22.9653
21.8791
21.413
21.7646
22.9337
24.7065
26.6906
28.3983
29.3569
29.2227
27.8682
25.4203
22.2386
18.8383
15.7767
13.5309
12.3984
12.4428
13.4975
15.2223
17.1963
19.0214
20.4075
21.2213
21.4876
21.3488
20.9992
20.6151
20.3043
20.0879
19.9189
19.7271
19.4737
19.1928
19.003
19.0816
19.6061
20.6812
22.2744
24.1857
26.0656
27.4829
28.0279
27.4242
25.6159
22.8052
19.4237
16.0445
13.2536
11.517
11.076
11.8989
13.6998
16.0152
18.3171
20.1299
21.1234
21.162
20.3071
18.7813
16.9117
15.072
13.6333
12.9288
13.2257
14.6952
17.3765
21.1355
25.6326
30.3176
34.4699
37.2953
38.0694
36.3065
31.9127
25.2815
17.2965
9.22592
2.52085
-1.44596
-1.6445
2.40508
10.531
21.9389
35.3657
49.3201
62.3561
73.3151
81.4872
86.6635
89.0791
89.2763
87.9306
85.6884
83.0537
80.3426
77.7011
75.1639
72.7234
70.3795
68.1531
66.0638
64.0872
62.1156
59.9465
57.3128
53.9519
49.6963
44.5578
38.7734
32.7949
27.215
22.6446
19.5726
18.2441
18.5916
20.2388
22.58
24.9137
26.5989
27.1941
26.5459
24.8074
22.3844
19.8277
17.6985
16.4411
16.2906
17.2339
19.0269
21.259
23.4468
25.1335
25.9755
25.7999
24.6259
22.6498
20.1989
17.6652
15.4301
13.7946
12.9259
12.8312
13.3648
14.2663
15.2255
15.9581
16.2762
16.1352
15.643
15.0282
14.5725
14.5248
15.0207
16.0315
17.3602
18.6892
19.6692
20.0261
19.6544
18.669
17.394
16.2899
15.8328
16.3791
18.0525
20.6872
23.8468
26.9173
29.252
30.3324
29.9002
28.0263
25.0959
21.713
18.5488
16.1729
14.9124
14.777
15.4681
16.4719
17.2111
17.2151
16.263
14.4611
12.2321
10.2165
9.11009
9.47724
11.5881
15.3222
20.1645
25.2977
29.7709
32.7054
33.4894
31.9171
28.2402
23.1218
17.5036
12.4181
8.78577
7.24015
8.01417
10.9072
15.3352
20.4505
25.3062
29.0335
31.0007
30.9254
28.9218
25.4738
21.3394
17.4021
14.4965
13.2415
13.9136
16.3888
20.1657
24.4689
28.4115
31.1839
32.2274
31.3555
28.7948
25.1367
21.2107
17.9066
15.9847
15.914
17.7729
21.2315
25.6188
30.0594
33.6518
35.6515
35.6233
33.5316
29.7512
24.9958
20.1774
16.2229
13.8863
13.5924
15.3462
18.7284
22.978
27.1481
30.3016
31.7067
30.9902
28.2164
23.8757
18.7858
13.927
10.2485
8.48378
9.01295
11.7953
16.3824
22.0033
27.7022
32.5013
35.5589
36.2984
34.4918
30.2892
24.1958
17.0029
9.68603
3.28342
-1.23033
-3.06035
-1.68489
3.08444
11.0823
21.8112
34.5011
48.1999
61.8799
74.5492
85.351
93.643
99.0471
101.469
101.086
98.3087
93.7211
87.9999
81.827
75.8003
70.3548
65.7079
61.8422
58.5312
55.4101
52.0806
48.227
43.7186
38.6691
33.4341
28.5403
24.5611
21.9657
20.9812
21.508
23.1126
25.109
26.7107
27.2187
26.197
23.5916
19.7569
15.3815
11.3288
8.42903
7.27657
8.08232
10.6196
14.2784
18.2146
21.5571
23.6182
24.0538
22.9305
20.6825
17.9701
15.481
13.731
12.9214
12.8972
13.219
13.3279
12.7532
11.2986
9.14415
6.82806
5.10659
4.73016
6.20175
9.59276
14.4765
20.0054
25.115
28.797
30.3622
29.6176
26.9028
22.9805
18.8126
15.2934
13.0179
12.1531
12.4428
13.338
14.2026
14.5271
14.0834
12.9747
11.5753
10.3842
9.84774
10.2085
11.4281
13.2031
15.0635
16.5172
17.1935
16.9419
15.8593
14.2461
12.508
11.0396
10.124
9.87563
10.235
11.0105
11.9482
12.8046
13.4043
13.668
13.6113
13.3195
12.9105
12.4975
12.1593
11.9245
11.769
11.6274
11.4143
11.0547
10.5164
9.83971
9.15473
8.67806
8.68247
9.44034
11.1498
13.8611
17.4247
21.4823
25.5118
28.9228
31.1849
31.9556
31.173
29.0849
26.1998
23.1705
20.6388
19.0827
18.7097
19.423
20.8707
22.559
23.9955
24.8197
24.8828
24.2601
23.1975
22.016
21.0097
20.369
20.1505
20.2956
20.6823
21.1862
21.7237
22.2651
22.815
23.3763
23.917
24.3585
24.594
24.5289
24.1268
23.4374
22.5927
21.7667
21.1138
20.7083
20.5125
20.3884
20.1535
19.661
18.8745
17.9043
16.9881
16.4166
16.429
17.1161
18.3707
19.9079
21.3549
22.3822
22.8287
22.7733
22.5203
22.4943
23.0754
24.4283
26.3867
28.4403
29.8417
29.8104
27.7795
23.6129
17.7254
11.0653
4.95586
0.833673
-0.0521873
3.09587
10.4591
21.5723
35.4274
50.6782
65.8919
79.7892
91.4224
100.266
106.213
109.497
110.57
109.967
108.186
105.613
102.487
98.9061
94.8724
90.3517
85.3368
79.8993
74.2172
68.5708
63.3072
58.778
55.2653
52.9122
51.6781
51.3325
51.4939
51.7081
51.5473
50.7068
49.0705
46.7291
43.9406
41.0472
38.37
36.1148
34.3186
32.8551
31.498
30.0237
28.3177
26.4493
24.6831
23.4198
23.0771
23.9459
26.0663
29.166
32.686
35.894
38.0584
38.6366
37.4226
34.6105
30.7533
26.6241
23.0187
20.5517
19.5047
19.7675
20.8892
22.2228
23.1224
23.1372
22.146
20.3977
18.4443
16.9882
16.686
17.963
20.8892
25.148
30.1049
34.9556
38.911
41.3722
42.0496
41.0016
38.5878
35.3564
31.9021
28.7332
26.1823
24.3789
23.2815
22.7516
22.6409
22.8593
23.4051
24.3476
25.7728
27.7128
30.0854
32.6681
35.1183
37.0385
38.069
37.9819
36.7498
34.5664
31.8113
28.9671
26.5087
24.796
23.9976
24.0656
24.7677
25.7653
26.7147
27.3601
27.595
27.4734
27.1708
26.9107
26.8789
27.154
27.6749
28.2538
28.6293
28.5432
27.8158
26.3991
24.3923
22.0184
19.571
17.347
15.5865
14.4332
13.9237
14.0042
14.5639
15.4752
16.6257
17.9352
19.3558
20.8575
22.4071
23.949
25.3944
26.626
27.5159
27.9564
27.896
27.3721
26.5304
25.625
24.9912
24.9954
25.9649
28.1137
31.478
35.878
40.9201
46.042
50.5986
53.9709
55.6799
55.4789
53.405
49.7775
45.1412
40.1663
35.5255
31.774
29.2579
28.0693
28.0553
28.8769
30.0996
31.2928
32.1127
32.3507
31.9396
30.9229
29.405
27.504
25.3268
22.9764
20.5854
18.3581
16.5942
15.6716
15.9768
17.7928
21.1723
25.8394
31.1593
36.2042
39.9153
41.3301
39.8234
35.297
28.2644
19.801
11.3655
4.5325
0.698207
0.827688
5.29753
13.8615
25.7346
39.763
54.6339
69.0761
82.0159
92.6726
100.592
105.634
107.931
107.832
105.842
102.554
98.5819
94.4854
90.7053
87.5084
84.9632
82.9502
81.2109
79.4242
77.2959
74.6383
71.4205
67.7775
63.9746
60.3358
57.1548
54.6113
52.7127
51.2809
49.9871
48.432
46.2535
43.2364
39.3971
35.0177
30.6145
26.8438
24.3599
23.6597
24.9503
28.0772
32.5348
37.5602
42.2903
45.9435
47.9779
48.1883
46.7158
43.9745
40.5194
36.8972
33.5243
30.6241
28.2349
26.2761
24.6412
23.2803
22.24
21.6493
21.6573
22.352
23.6919
25.4798
27.3921
29.0543
30.1374
30.4422
29.9424
28.7731
27.1707
25.3884
23.6182
21.9486
20.3708
18.8298
17.2974
15.8383
14.6403
13.9945
14.2273
15.6043
18.2351
22.0094
26.5868
31.4443
35.9736
39.6033
41.917
42.7387
42.1652
40.5375
38.3576
36.1689
34.4268
33.3892
33.0542
33.1596
33.2479
32.7827
31.2895
28.4848
24.3619
19.2071
13.5441
8.01848
3.25293
-0.28709
-2.38431
-3.09517
-2.7083
-1.6527
-0.384878
0.713186
1.40055
1.59734
1.36239
0.843842
0.222462
-0.335762
-0.708737
-0.829109
-0.682959
-0.303966
0.23212
0.812889
1.29887
1.54256
1.41918
0.865502
-0.0826436
-1.26708
-2.40996
-3.14811
-3.09603
-1.92522
0.558594
4.36015
9.27632
14.9214
20.7912
26.3526
31.1366
34.8166
37.2522
38.4927
38.7411
38.2894
37.4432
36.4528
35.4686
34.5274
33.5718
32.4929
31.1843
29.5905
27.7376
25.739
23.7758
22.0604
20.7913
20.1135
20.089
20.6847
21.774
23.1505
24.5508
25.6853
26.2776
26.1132
25.0964
23.3045
21.0264
18.7662
17.1936
17.0367
18.9238
23.2046
29.7911
38.0684
46.9146
54.8478
60.2865
61.8779
58.8224
51.1164
39.6458
26.0946
12.6758
1.73429
-4.69378
-5.2704
0.393289
11.6778
27.098
44.6108
62.0153
77.3564
89.2446
97.034
100.832
101.361
99.7104
97.0616
94.4313
92.5003
91.5454
91.4739
91.9355
92.4721
92.6621
92.2274
91.083
89.3273
87.1869
84.9359
82.8164
80.9779
79.4489
78.1437
76.8952
75.5058
73.7985
71.6599
69.0641
66.0767
62.8403
59.5463
56.4009
53.5904
51.2511
49.4491
48.1689
47.3141
46.7189
46.1706
45.4401
44.3184
42.6526
40.3778
37.5364
34.2816
30.862
27.5884
24.7884
22.7549
21.6972
21.7045
22.7265
24.5762
26.9549
29.4963
31.8242
33.6151
34.6562
34.8873
34.4168
33.507
32.5251
31.8682
31.8734
32.7333
34.4355
36.7447
39.2368
41.3813
42.6571
42.6767
41.2878
38.625
35.0957
31.2994
27.8972
25.4614
24.3443
24.599
25.9745
27.9874
30.0531
31.6411
32.4141
32.3105
31.5506
30.5603
29.836
29.7883
30.608
32.1954
34.1744
35.9892
37.0584
36.944
35.4863
32.8667
29.5782
26.3095
23.7724
22.5195
22.8003
24.4941
27.1381
30.0421
32.4601
33.7722
33.6315
32.0387
29.3276
26.0692
22.9216
20.466
19.0713
18.8214
19.5192
20.7648
22.0818
23.0592
23.468
23.3252
22.8859
22.5697
22.8392
24.0637
26.4031
29.7433
33.6996
37.6897
41.0584
43.2251
43.8194
42.7706
40.3308
37.0245
33.5364
30.5633
28.6641
28.1424
28.9881
30.8908
33.3195
35.6498
37.3064
37.8895
37.2548
35.5324
33.0831
30.4048
28.0137
26.3287
25.584
25.7879
26.732
28.046
29.2827
30.0141
29.9198
28.8515
26.8638
24.2077
21.2884
18.594
16.6065
15.7083
16.1013
17.7569
20.4091
23.6005
26.7768
29.4155
31.1604
31.9273
31.9497
31.739
31.9609
33.2465
35.9833
40.142
45.193
50.15
53.746
54.7144
52.1114
45.6036
35.6417
23.4685
10.9453
0.226519
-6.64896
-8.15789
-3.59459
6.79345
21.8636
39.8116
58.5232
75.9604
90.4997
101.154
107.648
110.338
110.037
107.772
104.551
101.194
98.2286
95.8885
94.1669
92.9115
91.9222
91.027
90.1223
89.1776
88.2135
87.2677
86.3635
85.49
84.5959
83.5966
82.3875
80.8589
78.9089
76.4553
73.4467
69.8769
65.801
61.35
56.7381
52.254
48.2307
44.9946
42.7991
41.7593
41.8025
42.6553
43.8743
44.9219
45.274
44.5347
42.5312
39.3619
35.3833
31.1359
27.2245
24.184
22.3622
21.8508
22.4806
23.879
25.5749
27.1177
28.1827
28.633
28.5281
28.0807
27.5801
27.3061
27.4582
28.1156
29.2337
30.6701
32.226
33.6873
34.8555
35.5637
35.6832
35.1284
33.8671
31.9386
29.4739
26.7059
23.9599
21.6133
20.03
19.4792
20.0622
21.6689
23.9816
26.532
28.8005
30.3348
30.8558
30.323
28.9404
27.1005
25.2811
23.9235
23.3236
23.5652
24.5103
25.8475
27.1822
28.1423
28.4714
28.086
27.0824
25.6961
24.2271
22.9523
22.0506
21.5588
21.3711
21.2797
21.0449
20.4752
19.4949
18.1801
16.7525
15.5311
14.853
14.9844
16.0427
17.9529
20.4483
23.1185
25.4919
27.1356
27.7474
27.2182
25.653
23.3444
20.7093
18.2027
16.2305
15.0804
14.8831
15.6098
17.0998
19.1086
21.3602
23.5913
25.5787
27.148
28.1696
28.5505
28.233
27.2046
25.5209
23.3308
20.893
18.568
16.778
15.9345
16.3472
18.1355
21.1709
25.0706
29.2533
33.0504
35.8463
37.214
37.0071
35.3844
32.7574
29.678
26.6981
24.2419
22.527
21.5525
21.1507
21.0783
21.1139
21.1266
21.0977
21.0957
21.2224
21.5599
22.1435
22.9742
24.0625
25.4799
27.3865
30.009
33.5622
38.131
43.5504
49.3302
54.6637
58.5379
59.9311
58.055
52.579
43.7761
32.545
20.2946
8.71531
-0.514626
-6.01992
-6.95402
-3.11569
5.05917
16.6166
30.2776
44.6576
58.4665
70.6565
80.5023
87.6172
91.9203
93.5765
92.9298
90.4439
86.6537
82.1273
77.43
73.0852
69.5289
67.061
65.8039
65.6788
66.4124
67.5803
68.683
69.244
68.9087
67.5213
65.1597
62.1169
58.8306
55.7785
53.3629
51.8153
51.1459
51.1495
51.4672
51.685
51.4416
50.5179
48.8819
46.6817
44.1891
41.7145
39.5169
37.7377
36.3728
35.2918
34.2937
33.1812
31.8301
30.2325
28.5017
26.8382
25.4682
24.5743
24.2401
24.4254
24.9808
25.6966
26.3722
26.8832
27.2261
27.525
27.9967
28.8823
30.3651
32.4991
35.1694
38.0978
40.8955
43.148
44.5113
44.7931
43.9975
42.3226
40.1121
37.7761
35.7025
34.1812
33.359
33.2323
33.6741
34.4837
35.4421
36.3603
37.1086
37.6265
37.9148
38.0186
38.0061
37.9504
37.9145
37.9408
38.0425
38.2001
38.3617
38.4509
38.3847
38.0964
37.5615
36.8165
35.9624
35.1492
34.5416
34.2748
34.4137
34.9293
35.7033
36.5623
37.333
37.9021
38.2607
38.5159
38.8628
39.5214
40.6574
42.3096
44.3506
46.4948
48.3568
49.5466
49.7771
48.9516
47.2072
44.897
42.5143
40.5752
39.4893
39.451
40.3806
41.9307
43.5576
44.6438
44.6418
43.2058
40.2817
36.1326
31.2938
26.467
22.3766
19.6227
18.5616
19.2437
21.4194
24.611
28.2287
31.7023
34.5923
36.6554
37.8518
38.2983
38.1883
37.7086
36.9801
36.0409
34.8736
33.4618
31.8501
30.1803
28.6863
27.6441
27.2931
27.7551
28.9805
30.7439
32.692
34.4304
35.6218
36.062
35.7115
34.6764
33.1496
31.3415
29.4284
27.542
25.7992
24.3572
23.4583
23.432
24.6322
27.3149
31.4885
36.7856
42.4152
47.2331
49.9369
49.3564
44.7692
36.1602
24.3454
10.9105
-2.03581
-12.2513
-17.804
-17.4694
-10.9883
0.876831
16.4968
33.7049
50.2224
64.0842
73.9717
79.3899
80.661
78.7536
74.9991
70.768
67.1812
64.9145
64.1301
64.5334
65.5288
66.4255
66.6375
65.8319
63.9927
61.3929
58.4924
55.7934
53.6975
52.4026
51.865
51.8327
51.936
51.8054
51.1801
49.9762
48.2972
46.3855
44.5361
42.9988
41.902
41.2211
40.7979
40.4022
39.8122
38.8861
37.6
36.0412
34.3623
32.7134
31.1798
29.7489
28.3189
26.7483
24.9286
22.8533
20.6578
18.6116
17.0618
16.3422
16.6745
18.0929
20.4158
23.2761
26.2012
28.7225
30.4817
31.3055
31.2288
30.4632
29.3215
28.1254
27.1213
26.4296
26.0397
25.8464
25.7138
25.544
25.3259
25.1496
25.1801
25.5998
26.5358
27.9965
29.8375
31.7701
33.4147
34.3859
34.3912
33.3132
31.2557
28.5358
25.6217
23.0297
21.2065
20.426
20.731
21.9346
23.6812
25.5508
27.1742
28.3259
28.9668
29.225
29.322
29.4715
29.7849
30.2179
30.5769
30.5867
29.9967
28.6903
26.7592
24.5145
22.4258
21.0024
20.6507
21.5506
23.5878
26.3646
29.2895
31.7215
33.1315
33.2371
32.0767
30.0025
27.5959
25.5275
24.3954
24.584
26.1732
28.9223
32.3285
35.7465
38.5405
40.232
40.6089
39.7704
38.0963
36.1493
34.5336
33.746
34.0546
35.4389
37.6027
40.0564
42.2465
43.6953
44.1149
43.4654
41.945
39.9182
37.8064
35.9725
34.6345
33.8274
33.423
33.1952
32.908
32.3986
31.6309
30.7039
29.8167
29.2003
29.039
29.4037
30.2172
31.2603
32.2194
32.7631
32.6308
31.7097
30.0822
28.0286
25.9802
24.4311
23.8228
24.4286
26.2657
29.0584
32.2719
35.2135
37.1879
37.6725
36.4711
33.8025
30.2942
26.8687
24.5403
24.1628
26.1884
30.499
36.3625
42.535
47.4989
49.7885
48.332
42.7286
33.3927
21.5253
8.9138
-2.39849
-10.4998
-13.969
-12.1288
-5.14089
6.06888
20.0295
35.0292
49.4327
61.9419
71.7509
78.5777
82.5851
84.2308
84.0953
82.7351
80.5942
77.981
75.1014
72.1188
69.2111
66.5976
64.5269
63.228
62.8446
63.378
64.6593
66.365
68.0744
69.3532
69.8418
69.3246
67.7625
65.284
62.1415
58.648
55.1139
51.8005
48.8967
46.5183
44.7201
43.5086
42.8455
42.6412
42.7419
42.9249
42.9126
42.4124
41.1802
39.092
36.2024
32.7682
29.2209
26.088
23.8778
22.9562
23.4496
25.2018
27.8018
30.6761
33.2226
34.9507
35.5896
35.136
33.8325
32.0855
30.3495
29.013
28.3172
28.3259
28.9492
30.0044
31.2894
32.6429
33.9711
35.2397
36.4366
37.5287
38.4322
39.0117
39.1128
38.6167
37.4984
35.8651
33.9571
32.1059
30.657
29.8793
29.8865
30.5966
31.743
32.9394
33.7805
33.9532
33.3274
31.9991
30.2728
28.5873
27.4017
27.0743
27.7648
29.3878
31.6289
34.0194
36.0489
37.2863
37.4777
36.5989
34.8506
32.6032
30.3078
28.3969
27.1987
26.8812
27.4318
28.6715
30.2928
31.9124
33.1273
33.5708
32.9614
31.1443
28.119
24.0489
19.2476
14.1381
9.1907
4.84706
1.44707
-0.825722
-1.96697
-2.13755
-1.61709
-0.73792
0.183781
0.90343
1.27962
1.2792
0.960539
0.443735
-0.122735
-0.592466
-0.845918
-0.809731
-0.471352
0.112001
0.813496
1.45089
1.81823
1.73401
1.0981
-0.0561341
-1.5309
-2.9685
-3.89756
-3.81659
-2.29869
0.906238
5.7978
12.0998
19.2929
26.6986
33.5987
39.3602
43.5406
45.9487
46.6523
45.9332
44.2055
41.9202
39.4775
37.1687
35.1549
33.4804
32.1111
30.9794
30.0192
29.1821
28.4308
27.7205
26.9799
26.1094
25.0039
23.5999
21.9351
20.1968
18.7375
18.0371
18.611
20.876
25.0058
30.817
37.7224
44.7789
50.8287
54.7134
55.5143
52.7642
46.58
37.6818
27.2918
16.9338
8.17551
2.36919
0.440775
2.76576
9.14709
18.8885
30.9386
44.072
57.0705
68.8779
78.7078
86.0986
90.9178
93.324
93.6989
92.5619
90.4807
87.9887
85.5189
83.3633
81.6598
80.407
79.5012
78.7852
78.0987
77.3179
76.377
75.2696
74.0313
72.7122
71.3492
69.9458
68.4674
66.8508
65.0282
62.954
60.6303
58.1203
55.5457
53.069
50.8617
49.0682
47.7707
46.9658
46.5575
46.3684
46.1701
45.7252
44.8345
43.3801
41.3543
38.8684
36.1365
33.4379
31.0623
29.2504
28.141
27.7386
27.9102
28.4121
28.9442
29.2186
29.0263
28.2854
27.0584
25.5342
23.9786
22.6676
21.8216
21.5581
21.8746
22.665
23.7608
24.9828
26.1849
27.2763
28.2169
28.9905
29.5693
29.8882
29.8417
29.3099
28.2071
26.5373
24.4349
22.1715
20.1204
18.6822
18.1898
18.8195
20.5339
23.0774
26.0272
28.8901
31.2181
32.7142
33.2974
33.1117
32.475
31.7832
31.3958
31.5327
32.2109
33.2373
34.2606
34.8677
34.7012
33.5666
31.4998
28.7776
25.8645
23.3077
21.6071
21.0922
21.8396
23.6548
26.1237
28.7219
30.9523
32.4722
33.1744
33.1983
32.8698
32.5869
32.6891
33.3494
34.5232
35.9691
37.3341
38.2734
38.5669
38.1937
37.3405
36.3452
35.5924
35.3981
35.9188
37.113
38.7624
40.5403
42.1028
43.1688
43.5671
43.2415
42.2211
40.5776
38.3928
35.752
32.7673
29.6148
26.5658
23.9858
22.2894
21.8535
22.9106
25.4548
29.1942
33.5722
37.8618
41.3127
43.3156
43.5406
42.0119
39.1005
35.4358
31.7602
28.7649
26.9466
26.5167
27.3819
29.1926
31.4447
33.6074
35.2487
36.1339
36.2776
35.9431
35.5858
35.7513
36.943
39.4829
43.3917
48.3196
53.5499
58.0896
60.8402
60.8235
57.4174
50.5478
40.7839
29.304
17.7258
7.82847
1.22428
-0.949562
1.7533
9.01346
19.828
32.7278
46.0745
58.3683
68.4935
75.8562
80.3919
82.4612
82.6728
81.6889
80.064
78.151
76.0857
73.8378
71.2996
68.3784
65.0636
61.4526
57.7337
54.1391
50.8861
48.1265
45.9185
44.2252
42.9382
41.9143
41.0155
40.1413
39.2468
38.3441
37.4916
36.773
36.2735
36.0578
36.1527
36.5367
37.1388
37.845
38.5135
38.9964
39.1654
38.9371
38.2931
37.289
36.0505
34.7521
33.5841
32.7111
32.2332
32.1575
32.3895
32.7475
33.001
32.9233
32.3493
31.2245
29.6323
27.7917
26.024
24.6924
24.1274
24.5527
26.0277
28.42
31.4171
34.575
37.3986
39.4368
40.374
40.0982
38.7283
36.5932
34.1638
31.9513
30.393
29.7544
30.0693
31.1372
32.5791
33.94
34.8133
34.9521
34.3405
33.2006
31.934
31.0113
30.8395
31.6434
33.3944
35.8072
38.4049
40.6361
42.0117
42.2243
41.2204
39.2066
36.5928
33.8883
31.5826
30.039
29.4279
29.7109
30.6723
31.985
33.2877
34.2561
34.6521
34.3476
33.3246
31.6626
29.5185
27.1072
24.682
22.5116
20.8511
19.9044
19.7842
20.4777
21.8324
23.5689
25.3283
26.7437
27.5243
27.5266
26.795
25.5561
24.1656
23.0211
22.4621
22.6863
23.7041
25.3431
27.3014
29.2313
30.8289
31.9052
32.4172
32.4568
32.2024
31.8523
31.5624
31.4054
31.3627
31.3461
31.2398
30.9461
30.4213
29.6905
28.8428
28.0095
27.3357
26.9543
26.9669
27.4325
28.3625
29.7175
31.4047
33.2773
35.1406
36.7699
37.9411
38.4719
38.2652
37.3415
35.8482
34.0388
32.2221
30.6924
29.6561
29.1775
29.1574
29.3546
29.4469
29.1162
28.1385
26.4544
24.204
21.7164
19.4566
17.9404
17.6366
18.8731
21.7646
26.1717
31.6958
37.7104
43.4255
47.98
50.5549
50.4991
47.4514
41.4422
32.951
22.9005
12.5718
3.44203
-3.03823
-5.69089
-3.83176
2.58355
12.9282
26.0027
40.2492
54.037
65.9558
75.0507
80.9444
83.8252
84.3124
83.2423
81.4388
79.5299
77.8531
76.4644
75.2308
73.9641
72.5442
70.99
69.457
68.1698
67.3194
66.9658
66.9843
67.0763
66.8413
65.8893
63.9564
60.9885
57.1696
52.8858
48.6392
44.9346
42.1703
40.5583
40.0902
40.5507
41.5712
42.7083
43.5273
43.6773
42.9441
41.2763
38.7831
35.7067
32.3754
29.1464
26.3467
24.2219
22.9024
22.389
22.5634
23.2174
24.097
24.9523
25.5834
25.876
25.8187
25.5
25.0852
24.7755
24.7574
25.152
25.9759
27.1243
28.384
29.4788
30.1367
30.1679
29.5295
28.359
26.9616
25.7495
25.1451
25.4718
26.8624
29.2118
32.1918
35.3251
38.1015
40.1051
41.1159
41.1595
40.4887
39.5053
38.6435
38.2492
38.4893
39.3149
40.4852
41.6453
42.4305
42.5696
41.9581
40.6833
38.9986
37.2557
35.8144
34.9549
34.8116
35.3442
36.3495
37.5095
38.4635
38.8889
38.5735
37.4645
35.6865
33.5219
31.3598
29.6195
28.6665
28.7349
29.8755
31.9408
34.611
37.4577
40.03
41.9437
42.954
42.9922
42.1613
40.6934
38.8823
37.0112
35.2966
33.8608
32.7373
31.9017
31.3127
30.9455
30.8042
30.9091
31.265
31.8265
32.4775
33.0388
33.308
33.1215
32.4192
31.2895
29.9722
28.8134
28.1789
28.3482
29.4203
31.2626
33.5198
35.6879
37.2347
37.7357
36.9888
35.075
32.3489
29.3589
26.7209
24.9754
24.4668
25.2717
27.1938
29.8203
32.6249
35.0887
36.812
37.5901
37.4418
36.5858
35.3753
34.2068
33.4237
33.2385
33.6895
34.6438
35.848
37.0151
37.9297
38.5403
39.0126
39.7193
41.1585
43.8106
47.9649
53.5596
60.0853
66.5921
71.8153
74.4101
73.2491
67.7165
57.9271
44.8074
30.0065
15.6446
3.94523
-3.17212
-4.45073
0.47171
11.0082
25.7532
42.7663
59.9418
75.3837
87.7049
96.1986
100.856
102.244
101.294
99.0499
96.4408
94.1282
92.4409
91.3994
90.8035
90.3488
89.737
88.7533
87.3021
85.4016
83.1515
80.6913
78.1625
75.6844
73.3437
71.1951
69.2663
67.5641
66.0778
64.7831
63.6472
62.6354
61.7203
60.8884
60.1422
59.4947
58.9584
58.5314
58.1877
57.8754
57.5247
57.0637
56.4349
55.6051
54.564
53.3103
51.8303
50.0802
47.981
45.4344
42.36
38.7437
34.6848
30.4217
26.3233
22.8401
20.4213
19.4155
19.9807
22.0271
25.2138
29.0035
32.7667
35.9125
38.0141
38.8988
38.6791
37.7171
36.531
35.6667
35.5684
36.4799
38.399
41.0957
44.1834
47.2212
49.8181
51.7095
52.7891
53.093
52.7463
51.8959
50.654
49.0706
47.1431
44.8567
42.2364
39.39
36.5225
33.9122
31.855
30.5903
30.2333
30.734
31.8754
33.3151
34.6557
35.5286
35.6684
34.9607
33.4566
31.3522
28.9444
26.5733
24.564
23.1767
22.57
22.7783
23.7055
25.1354
26.7596
28.2257
29.1993
29.4341
28.8341
27.4915
25.6861
23.8369
22.4127
21.8185
22.2845
23.7915
26.0535
28.5719
30.7503
32.0432
32.1015
30.8722
28.6244
25.8896
23.331
21.574
21.0433
21.8502
23.7614
26.2573
28.6641
30.3244
30.7611
29.7926
27.5703
24.5325
21.2894
18.4727
16.5886
15.9124
16.4473
17.9531
20.032
22.2426
24.2115
25.7116
26.69
27.2419
27.5442
27.7718
28.0237
28.2845
28.4305
28.2831
27.6894
26.6073
25.1634
23.6631
22.5404
22.2555
23.1636
25.3895
28.7477
32.7352
36.6131
39.5641
40.8932
40.2244
37.6376
33.7053
29.4068
25.9297
24.3993
25.5958
29.7295
36.3312
44.2933
52.0584
57.9196
60.3673
58.4083
51.785
41.0507
27.485
12.8731
-0.803081
-11.6957
-18.3796
-20.0488
-16.5939
-8.56103
2.98601
16.6641
30.9888
44.5757
56.2983
65.389
71.4788
74.5821
75.0376
73.4184
70.4271
66.7897
63.1623
60.061
57.8215
56.589
56.3357
56.8968
58.0155
59.3873
60.6985
61.6556
62.0096
61.5762
60.2564
58.055
55.0932
51.6078
47.9309
44.4464
41.5289
39.4734
38.4331
38.3804
39.1042
40.2475
41.3775
42.0763
42.0282
41.0839
39.2875
36.8584
34.1348
31.494
29.2679
27.6766
26.7938
26.5491
26.7667
27.2237
27.7147
28.1017
28.3404
28.4747
28.6064
28.8499
29.2864
29.9331
30.7353
31.5821
32.342
32.9029
33.2068
33.2657
33.1539
32.9801
32.8467
32.8094
32.8503
32.8713
32.7129
32.1922
31.1516
29.5052
27.2727
24.5897
21.6951
18.8942
16.5089
14.822
14.0287
14.204
15.2916
17.1156
19.4115
21.8697
24.1819
26.0814
27.3713
27.9385
27.7557
26.8751
25.4218
23.5884
21.6315
19.8655
18.6451
18.3313
19.2381
21.5652
25.3312
30.3263
36.1039
42.0246
47.3523
51.3888
53.6185
53.8274
52.1637
49.1192
45.4284
41.907
39.2671
37.9561
38.0611
39.3057
41.1412
42.9059
44.01
44.0931
43.1106
41.3237
39.1981
37.2422
35.8346
35.0941
34.832
34.6015
33.831
31.9986
28.7968
24.2381
18.6692
12.6922
7.01848
2.29738
-1.02998
-2.81356
-3.19702
-2.54764
-1.3414
-0.040607
1.00208
1.5924
1.69331
1.38681
0.819932
0.155542
-0.45966
-0.908517
-1.10571
-0.999678
-0.581644
0.0988513
0.920384
1.69105
2.1755
2.14985
1.47477
0.166607
-1.55819
-3.28636
-4.46771
-4.52412
-2.98401
0.391219
5.52252
11.9947
19.1119
26.0151
31.8367
35.8568
37.6306
37.0638
34.4275
30.3175
25.5687
21.1428
18.0002
16.9698
18.6229
23.1626
30.3438
39.4422
49.2938
58.4175
65.2219
68.273
66.5821
59.8543
48.6372
34.3222
18.9789
5.03938
-5.11355
-9.57324
-7.26241
1.86374
16.8096
35.7285
56.2678
75.996
92.8201
105.311
112.876
115.754
114.856
111.492
107.056
102.741
99.3385
97.1573
96.0569
95.5818
95.1468
94.226
92.4999
89.9288
86.7431
83.3591
80.2481
77.7965
76.1934
75.375
75.0393
74.726
73.9397
72.2844
69.5724
65.8815
61.5428
57.065
53.0135
49.8769
47.9541
47.2926
47.6899
48.7572
50.0257
51.0653
51.5845
51.4846
50.8575
49.9285
48.9652
48.1776
47.6397
47.2547
46.7719
45.8539
44.1725
41.5106
37.8415
33.3659
28.4941
23.7784
19.8081
17.0924
15.9556
16.4686
18.4327
21.4181
24.8504
28.1257
30.7303
32.3389
32.8697
32.4854
31.5407
30.4881
29.7645
29.6858
30.374
31.7341
33.4854
35.2399
36.606
37.2927
37.1853
36.3737
35.1261
33.8128
32.8034
32.3627
32.5761
33.325
34.3216
35.1927
35.5907
35.2997
34.3046
32.8018
31.1456
29.7444
28.9354
28.8759
29.484
30.4494
31.314
31.5996
30.9488
29.2349
26.6105
23.4785
20.3938
17.9242
16.5094
16.3598
17.419
19.4003
21.8799
24.4173
26.6666
28.4467
29.7545
30.7217
31.5361
32.3532
33.2287
34.0912
34.762
35.0131
34.645
33.5592
31.8043
29.5824
27.215
25.0758
23.51
22.7584
22.905
23.8609
25.3857
27.1423
28.7703
29.9622
30.5243
30.4081
29.7094
28.6326
27.4351
26.3631
25.5966
25.2159
25.1967
25.431
25.7678
26.0584
26.1957
26.1374
25.9081
25.5842
25.2665
25.0506
25.0014
25.1381
25.4306
25.8066
26.1677
26.4106
26.4505
26.2455
25.8149
25.2496
24.7057
24.3805
24.4689
25.1066
26.3144
27.9595
29.751
31.2817
32.1145
31.8989
30.4894
28.032
24.9851
22.0589
20.0727
19.7574
21.5487
25.4235
30.8281
36.7292
41.7861
44.6137
44.0827
39.5865
31.2139
19.7843
6.73321
-6.1283
-16.9313
-24.076
-26.5028
-23.8534
-16.4983
-5.43197
7.93298
22.0249
35.3714
46.8088
55.6112
61.5265
64.728
65.7052
65.124
63.6873
62.0199
60.5911
59.6778
59.3638
59.5653
60.0743
60.6117
60.8855
60.6494
59.7561
58.1989
56.1296
53.8454
51.7407
50.2255
49.6269
50.0953
51.541
53.6236
55.8064
57.4673
58.0454
57.1863
54.8462
51.3251
47.2143
43.2665
40.2212
38.6274
38.7116
40.3246
42.9822
45.9878
48.6034
50.2253
50.5167
49.4667
47.3631
44.6915
41.9916
39.7122
38.1023
37.1672
36.6939
36.3366
35.733
34.6178
32.9031
30.7042
28.3076
26.093
24.4328
23.5959
23.6825
24.6043
26.1128
27.8668
29.518
30.7939
31.5563
31.823
31.7497
31.5788
31.5703
31.9319
32.7668
34.049
35.6319
37.2862
38.7559
39.8187
40.3352
40.275
39.7149
38.8086
37.7396
36.6676
35.6875
34.8096
33.971
33.073
32.033
30.836
29.5643
28.395
27.5593
27.2746
27.6673
28.7109
30.2044
31.8018
33.0928
33.714
33.4632
32.3792
30.7615
29.1172
28.0436
28.0743
29.53
32.4166
36.3989
40.8633
45.0543
48.2496
49.9299
49.8969
48.3097
45.631
42.4994
39.563
37.3207
36.0116
35.5801
35.7232
36.001
35.9787
35.3598
34.0732
32.2954
30.4028
28.8712
28.1504
28.5483
30.1507
32.7966
36.1101
39.5781
42.6549
44.8689
45.9095
45.6805
44.31
42.12
39.562
37.1318
35.2772
34.317
34.3824
35.3947
37.0819
39.0333
40.7816
41.8957
42.0641
41.1517
39.2174
36.4895
33.3087
30.0523
27.0612
24.5839
22.7497
21.5702
20.9623
20.7818
20.8585
21.0251
21.1423
21.1224
20.956
20.7381
20.6882
21.1463
22.5334
25.2659
29.6316
35.6497
42.9517
50.7259
57.7613
62.605
63.8188
60.2896
51.5261
37.8647
20.5247
1.47934
-16.8441
-31.9825
-41.8858
-45.2984
-41.9878
-32.7666
-19.3041
-3.77101
11.5998
24.938
35.0515
41.5699
44.897
45.9958
46.0736
46.2488
47.2821
49.4308
52.45
55.7253
58.4892
60.0566
60.0168
58.3343
55.3419
51.6369
47.9185
44.8132
42.7375
41.8272
41.9468
42.7651
43.8693
44.8823
45.5502
45.7828
45.6407
45.2832
44.8975
44.6333
44.5612
44.6635
44.8545
45.0194
45.0554
44.9004
44.5433
44.0132
43.3557
42.6067
41.7741
40.8341
39.7429
38.4582
36.9631
35.2822
33.4846
31.6729
29.9619
28.455
27.2272
26.3191
25.7442
25.5055
25.6115
26.0848
26.9551
28.2361
29.8932
31.8124
33.7845
35.5174
36.6798
36.9724
36.2111
34.4001
31.7724
28.7788
26.0213
24.1385
23.6663
24.9083
27.8472
32.1252
37.1014
41.9788
45.9708
48.4703
49.1788
48.1633
45.8279
42.8074
39.8092
37.4454
36.0962
35.837
36.4462
37.4855
38.4296
38.8086
38.3256
36.9214
34.7733
32.2344
29.7327
27.661
26.2858
25.6955
25.7982
26.3617
27.0813
27.6554
27.8481
27.5294
26.6855
25.4068
23.8596
22.2527
20.8056
19.7207
19.1603
19.2255
19.9368
21.2189
22.8968
24.7081
26.3388
27.4797
27.8953
27.4906
26.3534
24.7596
23.1295
21.942
21.6241
22.4426
24.4285
27.3561
30.7862
34.163
36.9408
38.705
39.2563
38.6354
37.0844
34.9607
32.6314
30.3809
28.3578
26.5744
24.9511
23.3864
21.8258
20.305
18.9534
17.9615
17.5252
17.7872
18.7969
20.4971
22.7363
25.2976
27.9287
30.3622
32.3273
33.5578
33.8106
32.9061
30.7886
27.593
23.6933
19.7011
16.3955
14.5817
14.9053
17.6684
22.7064
29.373
36.6583
43.4211
48.6825
51.898
53.1239
53.0178
52.6577
53.2172
55.5833
60.0253
66.0173
72.278
77.0323
78.4359
75.0574
66.2898
52.5824
35.4281
17.1059
0.24015
-12.7147
-19.9427
-20.5831
-14.8322
-3.82522
10.6558
26.566
41.9798
55.39
65.8755
73.1255
77.3466
79.0959
79.0963
78.0751
76.653
75.2888
74.2688
73.7233
73.6518
73.9474
74.4183
74.8128
74.8524
74.2789
72.907
70.6739
67.6685
64.1274
60.3946
56.8488
53.8194
51.512
49.9667
49.0617
48.5615
48.1933
47.7277
47.0374
46.1152
45.049
43.9642
42.9586
42.0544
41.1883
40.2426
39.1064
37.7407
36.2206
34.7321
33.5204
32.8032
32.6802
33.0709
33.7098
34.2062
34.1556
33.2682
31.4746
28.9712
26.1866
23.6763
21.9757
21.4534
22.2117
24.0605
26.5733
29.2054
31.436
32.8943
33.432
33.128
32.2309
31.0643
29.9282
29.0269
28.4416
28.1475
28.0604
28.0906
28.1812
28.3193
28.5193
28.7928
29.1208
29.4456
29.6876
29.7846
29.7354
29.6318
29.6591
30.0623
31.0818
32.8763
35.4576
38.6574
42.1406
45.4626
48.1593
49.8459
50.2994
49.5034
47.647
45.077
42.2199
39.4929
37.2251
35.6066
34.6721
34.3193
34.3514
34.5313
34.6321
34.4768
33.9579
33.0413
31.7555
30.1737
28.3943
26.5225
24.6559
22.8752
21.2377
19.7765
18.5038
17.4196
16.5256
15.8421
15.4234
15.3684
15.8197
16.9498
18.9332
21.9101
25.9487
31.0153
36.9609
43.5299
50.3911
57.1846
63.5765
69.308
74.2279
78.3018
81.5955
84.2375
86.3694
88.0967
89.4528
90.3847
90.7658
90.4332
89.2432
87.1298
84.1542
80.5284
76.6023
72.8133
69.6002
67.3009
66.0548
65.7374
65.9506
66.0811
65.4239
63.3503
59.4815
53.8255
46.8337
39.3526
32.4696
27.28
24.6265
24.8753
27.7873
32.5238
37.7942
42.1173
44.1383
42.9305
38.2115
30.4258
20.6769
10.5275
1.71367
-4.16343
-5.90698
-2.9057
4.7984
16.5562
31.2503
47.4913
63.8331
78.9697
91.8883
101.963
108.981
113.112
114.825
114.773
113.665
112.142
110.677
109.518
108.677
107.963
107.062
105.628
103.384
100.196
96.1106
91.3522
86.2712
81.2666
76.6973
72.8053
69.6704
67.2044
65.1876
63.3339
61.3679
59.0925
56.4301
53.4294
50.2383
47.0541
44.0678
41.4182
39.1666
37.2975
35.7385
34.3905
33.1572
31.9659
30.776
29.5797
28.3981
27.2804
26.306
25.5869
25.2647
25.4949
26.4171
28.1145
30.5731
33.6548
37.0964
40.5414
43.6003
45.9275
47.2937
47.6358
47.0679
45.8514
44.3304
42.8508
41.6836
40.9735
40.7219
40.8084
41.0396
41.2109
41.1631
40.8192
40.1941
39.3779
38.4983
37.676
36.9838
36.4203
35.9048
35.2935
34.4143
33.112
31.2949
28.9714
26.2699
23.4342
20.7934
18.7113
17.522
17.4654
18.6364
20.9583
24.1902
27.9665
31.862
35.4698
38.4731
40.6965
42.1233
42.8785
43.1798
43.2729
43.3663
43.5839
43.9467
44.386
44.7827
45.0198
45.0304
44.8264
44.4999
44.1952
44.0629
44.2076
44.6495
45.3096
46.0265
46.5986
46.842
46.6449
46.0029
45.0251
43.9065
42.8759
42.1327
41.791
41.8465
42.1745
42.5616
42.7599
42.5506
41.7992
40.4876
38.7159
36.6736
34.5893
32.6735
31.0699
29.8303
28.9182
28.2417
27.702
27.2443
26.8908
26.7428
26.9477
27.6376
28.8559
30.4976
32.2851
33.7937
34.5279
34.0323
32.0094
28.4111
23.4758
17.6975
11.7315
6.26017
1.85286
-1.14353
-2.65717
-2.8769
-2.17982
-1.02507
0.155657
1.0429
1.47251
1.43409
1.03471
0.44523
-0.15299
-0.608382
-0.821883
-0.754418
-0.425075
0.0947643
0.68967
1.21302
1.50844
1.44187
0.941518
0.0366956
-1.11728
-2.24083
-2.96583
-2.9028
-1.72683
0.738904
4.46523
9.20319
14.5216
19.8896
24.7832
28.7912
31.6903
33.4733
34.3234
34.546
34.4766
34.3938
34.4586
34.6943
35.007
35.2372
35.2222
34.8516
34.1
33.0323
31.7846
30.53
29.4427
28.6687
28.3083
28.4113
28.9793
29.972
31.3131
32.898
34.6032
36.3007
37.8775
39.2563
40.4119
41.3771
42.2321
43.0808
44.0162
45.0872
46.2764
47.4968
48.6085
49.4522
49.8872
49.8237
49.2393
48.1751
46.7158
44.9613
43.0002
40.8953
38.6844
36.3948
34.064
31.7568
29.5708
27.6276
26.0497
24.9325
24.3193
24.1892
24.4607
25.0121
25.7102
26.4402
27.1262
27.7367
28.2754
28.7597
29.1981
29.5727
29.8367
29.9269
29.7887
29.4044
28.8152
28.1263
27.4914
27.0793
27.0294
27.4108
28.1971
29.2668
30.4294
31.4728
32.2171
32.5598
32.4982
32.1239
31.5904
31.0645
30.6788
30.498
30.5109
30.6468
30.8096
30.9162
30.9242
30.8398
30.7045
30.5681
30.4589
30.3676
30.2507
30.056
29.7598
29.4014
29.0984
29.033
29.407
30.376
31.9829
34.1115
36.4792
38.6766
40.2495
40.8032
40.1049
38.1547
35.2053
31.7227
28.2943
25.5053
23.8134
23.4504
24.375
26.2867
28.6975
31.0427
32.8056
33.626
33.3696
32.1436
30.2576
28.1409
26.2386
24.9101
24.3542
24.5776
25.4122
26.5744
27.7511
28.6896
29.2673
29.5243
29.6483
29.9156
30.6024
31.8894
33.7857
36.0958
38.4408
40.3374
41.3163
41.0549
39.491
36.8835
33.7995
31.0206
29.3806
29.5674
31.9318
36.3479
42.1661
48.2756
53.2765
55.7303
54.4444
48.7307
38.5839
24.7407
8.60119
-7.97334
-22.9518
-34.457
-41.0625
-42.007
-37.2913
-27.6437
-14.3683
0.891506
16.4235
30.7035
42.593
51.4488
57.1366
59.9568
60.508
59.524
57.7175
55.6612
53.7247
52.0694
50.6921
49.4986
48.3823
47.2864
46.2339
45.3221
44.687
44.4513
44.6753
45.3265
46.2781
47.3378
48.2982
48.9956
49.357
49.4239
49.3418
49.3198
49.5684
50.2339
51.3471
52.8015
54.3693
55.7507
56.6467
56.8336
56.2212
54.8766
53.0069
50.9036
48.8649
47.1149
45.7461
44.6982
43.785
42.7589
41.3976
39.586
37.3701
34.9626
32.6977
30.9454
30.0072
30.0239
30.9232
32.422
34.0877
35.4411
36.0754
35.7579
34.4873
32.4924
30.172
27.9957
26.3917
25.6536
25.8888
27.0174
28.8196
31.0086
33.3087
35.5117
37.4991
39.2287
40.6945
41.8805
42.7259
43.1169
42.9086
41.9685
40.2279
37.7236
34.6147
31.171
27.7345
24.6664
22.2926
20.8612
20.5181
21.3012
23.1485
25.913
29.3777
33.2694
37.2733
41.0518
44.2709
46.6361
47.9316
48.0565
47.0465
45.0751
42.4314
39.4771
36.5913
34.1164
32.3122
31.329
31.1992
31.8463
33.1052
34.7493
36.5202
38.1569
39.4258
40.1498
40.2336
39.6821
38.6043
37.1997
35.7243
34.4424
33.5716
33.2363
33.4414
34.0744
34.9373
35.7997
36.4578
36.7819
36.7387
36.3815
35.8122
35.1299
34.3834
33.5486
32.5375
31.2424
29.5994
27.6511
25.5857
23.7335
22.5158
22.3533
23.5571
26.2285
30.1977
35.0192
40.0313
44.4693
47.6101
48.9197
48.1722
45.5163
41.4762
36.8821
32.7406
30.0633
29.6773
32.0482
37.1465
44.3841
52.6453
60.4169
66.0133
67.8643
64.8213
56.4213
43.0513
25.9657
7.13982
-11.0269
-26.1057
-36.056
-39.5801
-36.3389
-26.9843
-13.0033
3.58954
20.639
36.2306
48.9859
58.2182
63.9292
66.6693
67.3096
66.793
65.9225
65.2311
64.9477
65.0462
65.3471
65.6312
65.7303
65.5743
65.1902
64.6653
64.0966
63.5476
63.0285
62.504
61.923
61.2557
60.5228
59.8042
59.2245
58.9175
58.9842
59.4547
60.2702
61.2873
62.3069
63.1176
63.5412
63.4691
62.8788
61.8282
60.4297
58.8133
57.0882
55.3139
53.488
51.5522
49.415
46.9836
44.1984
41.0601
37.6449
34.1027
30.6392
27.4847
24.8565
22.9192
21.7533
21.3371
21.5464
22.1726
22.9585
23.6436
24.0122
23.9333
23.3843
22.4533
21.3182
20.2065
19.3464
18.9172
19.0126
19.625
20.6531
21.9311
23.2717
24.5109
25.5429
26.3356
26.9241
27.3828
27.787
28.1751
28.5233
28.7414
28.6935
28.2363
27.2671
25.7674
23.8281
21.651
19.5228
17.7667
16.6845
16.4992
17.3113
19.0774
21.6139
24.6243
27.7453
30.6016
32.8632
34.2942
34.7869
34.3758
33.2274
31.6084
29.8347
28.2114
26.9749
26.2497
26.0296
26.1889
26.5209
26.7951
26.8176
26.4799
25.7833
24.8331
23.8059
22.8996
22.2826
22.0543
22.2288
22.7425
23.4825
24.3226
25.1573
25.9224
26.5985
27.1982
27.7456
28.2552
28.7191
29.1073
29.3786
29.4996
29.4608
29.2857
29.027
28.7497
28.5093
28.3294
28.1921
28.0441
27.8215
27.4858
27.061
26.6552
26.455
26.6859
27.545
29.1219
31.334
33.9038
36.398
38.332
39.3216
39.243
38.3486
37.2916
37.0253
38.5818
42.7679
49.8528
59.3364
69.8799
79.447
85.652
86.253
79.6823
65.4844
44.5449
19.038
-7.91138
-32.7858
-52.3297
-64.1533
-67.1475
-61.6249
-49.1633
-32.2055
-13.5212
4.33668
19.4596
30.8125
38.2408
42.286
43.8871
44.0598
43.6368
43.1244
42.6873
42.2379
41.5815
40.56
39.1493
37.4856
35.8252
34.4592
33.6195
33.4091
33.7786
34.5536
35.5021
36.4173
37.1896
37.8451
38.5409
39.5179
41.0268
43.2476
46.2264
49.846
53.8375
57.8322
61.4378
64.3221
66.2833
67.2887
67.475
67.1086
66.517
66.0071
65.7906
65.9332
66.3408
66.7839
66.9554
66.5456
65.3172
63.161
60.1202
56.3781
52.2142
47.9424
43.848
40.1399
36.9287
34.2327
32.0063
30.1769
28.6773
27.4622
26.5058
25.7844
25.2555
24.8465
24.4614
24.0082
23.4403
22.7941
22.2092
21.9146
22.1792
23.2345
25.1902
27.9685
31.2818
34.6665
37.5717
39.4838
40.0542
39.1959
37.1197
34.2952
31.3452
28.8983
27.4386
27.1937
28.0884
29.779
31.7538
33.4736
34.5102
34.6466
33.9121
32.5486
30.9198
29.3968
28.2524
27.5963
27.367
27.3782
27.4006
27.2527
26.8697
26.3317
25.8433
25.6748
26.0822
27.2319
29.1505
31.7103
34.6537
37.6455
40.3384
42.4359
43.7394
44.1737
43.7892
42.7449
41.2781
39.6652
38.1792
37.0473
36.4142
36.3156
36.6675
37.277
37.8743
38.164
37.8847
36.8675
35.0769
32.6277
29.77
26.8486
24.2421
22.2962
21.262
21.2495
22.2035
23.9024
25.9843
27.9965
29.4688
30.0046
29.3775
27.6166
25.0573
22.3316
20.2832
19.8058
21.6262
26.0749
32.9027
41.2025
49.4785
55.8722
58.5151
55.9384
47.4459
33.3563
15.044
-5.24575
-24.7772
-40.822
-51.1641
-54.4994
-50.6446
-40.5136
-25.8797
-8.98662
7.89534
22.8681
34.6798
42.8309
47.513
49.4211
49.4989
48.6884
47.7367
47.0934
46.9039
47.0775
47.3997
47.6478
47.6804
47.4817
47.1546
46.876
46.8297
47.141
47.8308
48.8023
49.8608
50.7626
51.2761
51.2412
50.6095
49.4574
47.9684
46.3912
44.9841
43.9609
43.4497
43.4731
43.9523
44.7304
45.6081
46.3824
46.8804
46.9839
46.6419
45.8724
44.7539
43.4088
41.98
40.6032
39.3778
38.3421
37.4584
36.6145
35.6441
34.3653
32.6306
30.3755
27.6542
24.6496
21.6524
19.0112
17.0639
16.0666
16.1375
17.2287
19.1343
21.531
24.0423
26.3091
28.0519
29.1118
29.4639
29.2031
28.5102
27.6074
26.7126
26.0029
25.5903
25.5138
25.7447
26.2045
26.7908
27.4052
27.9796
28.4939
28.9819
29.522
30.2141
31.1472
32.3657
33.8441
35.4778
37.0954
38.4914
39.4709
39.8966
39.7233
39.0101
37.9064
36.6143
35.3383
34.2361
33.386
32.7785
32.3361
31.9522
31.5377
31.058
30.551
30.116
29.882
29.9618
30.4115
31.2068
32.2465
33.3821
34.4649
35.3941
36.1509
36.8058
37.4954
38.3756
39.5645
41.0928
42.8769
44.7244
46.3708
47.5389
48.0058
47.6597
46.5333
44.8049
42.7669
40.7685
39.1433
38.1367
37.8479
38.1986
38.9371
39.6833
40.0085
39.5412
38.0784
35.6778
32.7035
29.8036
27.8089
27.5612
29.6986
34.4427
41.4433
49.7288
57.7961
63.8415
66.0986
63.2197
54.6182
40.6859
22.8272
3.28366
-15.2256
-29.9795
-38.7507
-40.2142
-34.1831
-21.6222
-4.44022
14.8898
33.797
50.0647
62.1791
69.5107
72.3095
71.5334
68.5643
64.8831
61.772
60.1018
60.2304
62.0169
64.9311
68.2207
71.0988
72.912
73.2614
72.0609
69.5275
66.1132
62.3935
58.9388
56.1937
54.3897
53.5104
53.3162
53.4225
53.413
52.9573
51.9036
50.3203
48.473
46.7443
45.5169
45.0537
45.4094
46.401
47.645
48.6535
48.9604
48.2432
46.4049
43.595
40.1647
36.5719
33.2639
30.5727
28.649
27.4514
26.7872
26.389
26.0007
25.4477
24.6735
23.7368
22.7741
21.9443
21.3736
21.1166
21.144
21.3581
21.6302
21.8488
21.9629
22.0106
22.1199
22.4813
23.2933
24.6943
26.6983
29.1553
31.7554
34.085
35.7285
36.3927
36.0184
34.8389
33.3566
32.23
32.0908
33.3396
35.9807
39.5542
43.1975
45.8327
46.4348
44.308
39.2898
31.8216
22.8617
13.6638
5.4843
-0.700743
-4.39094
-5.62329
-4.8947
-2.98072
-0.712264
1.22347
2.40818
2.72325
2.29778
1.40746
0.365829
-0.558962
-1.18607
-1.42629
-1.26532
-0.745078
0.0446838
0.964536
1.82389
2.39472
2.45058
1.82995
0.509173
-1.33856
-3.32336
-4.87429
-5.33157
-4.07872
-0.68413
4.98344
12.696
21.8808
31.7054
41.2157
49.4935
55.802
59.6903
61.0407
60.0579
57.2095
53.1365
48.5513
44.1409
40.484
37.9874
36.8453
37.0197
38.2488
40.0831
41.9551
43.2785
43.5678
42.5601
40.3124
37.2473
34.1211
31.9075
31.6015
33.9765
39.3421
47.3616
56.9846
66.5309
73.9331
77.104
74.3651
64.845
48.7536
27.4602
3.3388
-20.6014
-41.2325
-55.8665
-62.7359
-61.2935
-52.2672
-37.4637
-19.371
-0.656706
16.3258
29.9148
39.3327
44.6694
46.6897
46.5287
45.3647
44.1486
43.4424
43.3892
43.794
44.275
44.4327
43.9891
42.8661
41.1958
39.2723
37.4677
36.1405
35.558
35.8467
36.9771
38.7786
40.978
43.2525
45.2888
46.8381
47.7604
48.0484
47.8255
47.3164
46.7933
46.5078
46.6248
47.1754
48.0427
48.987
49.7059
49.914
49.4201
48.1795
46.3072
44.0455
41.6975
39.5455
37.7798
36.4575
35.5044
34.7566
34.0263
33.1702
32.1369
30.979
29.8269
28.8349
28.1191
27.7094
27.5322
27.4294
27.2091
26.7097
25.8569
24.6965
23.391
22.1833
21.3384
21.081
21.5456
22.7524
24.6103
26.9419
29.5205
32.1053
34.4679
36.4084
37.7624
38.4084
38.2796
37.3805
35.8055
33.7483
31.4944
29.3879
27.777
26.9461
27.052
28.0825
29.8511
32.0325
34.2315
36.07
37.2665
37.6897
37.3717
36.4791
35.2529
33.9356
32.7087
31.656
30.7629
29.9474
29.11
28.1859
27.1795
26.1739
25.3096
24.7432
24.599
24.93
25.6999
26.7932
28.0489
29.3059
30.4474
31.4281
32.2758
33.0686
33.8926
34.7981
35.7677
36.7098
37.4825
37.9419
37.9997
37.6718
37.0979
36.5218
36.2329
36.4823
37.3974
38.921
40.7974
42.6138
43.8923
44.2096
43.3136
41.2047
38.158
34.6772
31.3896
28.9074
27.688
27.9266
29.5064
32.0161
34.8307
37.2372
38.5789
38.392
36.5089
33.1109
28.7215
24.1391
20.3159
18.1975
18.5462
21.7732
27.8124
36.0616
45.4154
54.3938
61.3571
64.7761
63.5124
57.0551
45.6651
30.3921
12.9535
-4.5095
-19.7577
-30.8037
-36.2233
-35.3723
-28.4712
-16.5455
-1.2359
15.4843
31.6304
45.5088
55.9489
62.4273
65.0719
64.5526
61.8914
58.234
54.6305
51.867
50.3737
50.2179
51.1688
52.809
54.6597
56.2901
57.3898
57.7971
57.4888
56.546
55.1117
53.3557
51.4526
49.5741
47.8872
46.5519
45.713
45.4824
45.918
47.0052
48.6485
50.6774
52.8681
54.9751
56.7663
58.0535
58.7129
58.6923
58.0075
56.7319
54.982
52.9038
50.659
48.412
46.3137
44.4832
42.9881
41.8283
40.9296
40.1512
39.3121
38.2307
36.7714
34.8857
32.6357
30.19
27.7919
25.7048
24.1507
23.2584
23.0373
23.3854
24.1284
25.0776
26.0858
27.0829
28.0775
29.1233
30.2642
31.4782
32.6445
33.5507
33.9429
33.6068
32.454
30.5839
28.2948
26.0367
24.3109
23.5459
23.9824
25.6033
28.1286
31.0802
33.8966
36.0651
37.237
37.2933
36.3483
34.6951
32.715
30.7783
29.1674
28.0373
27.4197
27.2589
27.4627
27.9457
28.6525
29.5564
30.6383
31.8599
33.145
34.3782
35.4226
36.1515
36.4805
36.3893
35.9225
35.1715
34.2406
33.2121
32.1214
30.9537
29.6621
28.204
26.5823
24.8766
23.2541
21.9511
21.2305
21.3235
22.3705
24.3776
27.1991
30.5507
34.0505
37.2782
39.8401
41.4285
41.8665
41.1331
39.3693
36.8633
34.0181
31.3005
29.1743
28.0203
28.0557
29.2667
31.3762
33.8646
36.0549
37.2578
36.9527
34.9648
31.5871
27.6005
24.1649
22.5825
23.9748
28.9418
37.293
47.9312
58.9426
67.8997
72.3281
70.2422
60.628
43.7542
21.228
-4.23182
-29.2654
-50.486
-65.1039
-71.4243
-69.1105
-59.1657
-43.6482
-25.2002
-6.5051
10.2006
23.4613
32.7254
38.2587
40.8989
41.7332
41.7885
41.8083
42.1551
42.8394
43.6414
44.2743
44.5308
44.3753
43.9588
43.5664
43.5197
44.0719
45.3254
47.1968
49.4334
51.6746
53.5388
54.7116
55.016
54.4481
53.1738
51.4901
49.7607
48.341
47.5074
47.4062
48.029
49.2221
50.7244
52.2269
53.4408
54.159
54.2978
53.909
53.1603
52.2896
51.5432
51.114
51.0936
51.4505
52.0376
52.6267
52.962
52.8178
52.0501
50.6282
48.6432
46.2914
43.8375
41.5662
39.7309
38.5102
37.9788
38.0986
38.7292
39.6575
40.6394
41.4447
41.8986
41.9095
41.4796
40.6951
39.7016
38.6684
37.7529
37.0729
36.6918
36.62
36.8293
37.2734
37.907
38.6973
39.6233
40.6642
41.7817
42.9045
43.9224
44.6949
45.0754
44.9467
44.2575
43.0501
41.4688
39.7438
38.151
36.9554
36.3516
36.4158
37.0842
38.1642
39.3778
40.4297
41.0806
41.209
40.8425
40.1511
39.3996
38.8744
38.8003
39.2733
40.2264
41.4406
42.5989
43.3695
43.4967
42.874
41.5785
39.8572
38.0687
36.5947
35.7462
35.6902
36.4155
37.7467
39.4009
41.0693
42.4996
43.5553
44.2361
44.6531
44.9712
45.335
45.8066
46.3338
46.7616
46.8851
46.5263
45.612
44.2249
42.609
41.1236
40.1564
40.0172
40.8452
42.5551
44.8406
47.235
49.2136
50.3106
50.2197
48.8547
46.3569
43.0539
39.3832
35.805
32.7223
30.4241
29.0552
28.6114
28.9543
29.8408
30.9673
32.0285
32.7896
33.1617
33.2635
33.4432
34.2369
36.251
39.9788
45.5866
52.7267
60.4434
67.2237
71.2136
70.5767
63.9244
50.7152
31.517
8.04839
-17.035
-40.5784
-59.5008
-71.3759
-74.8883
-70.0606
-58.2034
-41.6061
-23.0478
-5.24641
9.63204
20.3005
26.4623
28.7056
28.2327
26.5028
24.8804
24.3634
25.4374
28.0685
31.8102
35.9834
39.8748
42.9086
44.7566
45.3729
44.9596
43.8802
42.5516
41.3405
40.4892
40.0829
40.0622
40.2689
40.5114
40.628
40.5328
40.2334
39.8188
39.4256
39.1952
39.2362
39.6027
40.2938
41.2694
42.4756
43.8676
45.4203
47.1251
48.9731
50.9341
52.9386
54.8725
56.5863
57.9163
58.7115
58.8584
58.297
57.0259
55.099
52.6172
49.7209
46.5836
43.4067
40.4093
37.8096
35.7942
34.4801
33.8774
33.8651
34.1917
34.5079
34.4279
33.6077
31.8233
29.0258
25.3586
21.1301
16.7459
12.6191
9.0807
6.31296
4.32256
2.9587
1.96898
1.07639
0.0562854
-1.20659
-2.69353
-4.26285
-5.68964
-6.72102
-7.1311
-6.76264
-5.54756
-3.50586
-0.728182
2.64923
6.46843
10.5662
14.7809
18.9519
22.9168
26.5111
29.5753
31.9707
33.6
34.4293
34.5045
33.9562
32.9893
31.8596
30.8378
30.1697
30.039
30.5389
31.66
33.2937
35.2523
37.3007
39.1947
40.7196
41.7228
42.1353
41.9799
41.3645
40.4614
39.4763
38.6115
38.0302
37.827
38.0126
38.5136
39.1909
39.8706
40.3827
40.5987
40.4578
39.9778
39.2452
38.3899
37.5485
36.8289
36.2835
35.9002
35.6128
35.3282
34.9633
34.4809
33.9147
33.3757
33.0387
33.1105
33.787
35.2095
37.4301
40.3923
43.9322
47.7985
51.6887
55.2931
58.3409
60.6409
62.11
62.7871
62.8289
62.4869
62.0679
61.8805
62.1748
63.0853
64.5873
66.4809
68.4109
69.927
70.5792
70.0338
68.1849
65.2332
61.7047
58.3917
56.2144
56.0224
58.3738
63.3415
70.3991
78.4259
85.848
90.9023
91.9779
87.9671
78.5502
64.3431
46.8683
28.3404
11.3039
-1.80906
-9.1104
-9.58898
-3.27584
8.79093
24.7905
42.4814
59.622
74.3591
85.5081
92.6734
96.1977
96.9683
96.1363
94.821
93.8676
93.707
94.3373
95.4143
96.4154
96.8239
96.2872
94.708
92.2568
89.31
86.3395
83.7876
81.9623
80.9749
80.7319
80.9758
81.3586
81.5266
81.1955
80.2002
78.5135
76.2332
73.5479
70.6885
67.8806
65.3024
63.057
61.1596
59.5414
58.0677
56.5667
54.8668
52.8346
50.4091
47.625
44.6181
41.6103
38.874
36.6791
35.2336
34.6281
34.7989
35.5199
36.431
37.0999
37.1091
36.1508
34.1087
31.1058
27.5024
23.8394
20.7339
18.748
18.2583
19.3594
21.8271
25.1553
28.6628
31.6472
33.5496
34.0883
33.326
31.65
29.6677
28.0444
27.3249
27.7879
29.3722
31.6974
34.1699
36.1478
37.1146
36.8153
35.3163
32.9766
30.3399
27.9833
26.3674
25.729
26.0445
27.0676
28.4231
29.7255
30.684
31.1649
31.1997
30.9425
30.597
30.3404
30.2677
30.3721
30.5615
30.7029
30.6756
30.4167
29.9454
29.3605
28.8155
28.4804
28.501
28.9666
29.8921
31.217
32.8183
34.5334
36.1859
37.609
38.6638
39.2488
39.3024
38.8005
37.7536
36.2054
34.2359
31.9676
29.5697
27.255
25.264
23.8327
23.148
23.2988
24.237
25.7626
27.542
29.1635
30.2194
30.3968
29.5559
27.7708
25.3229
22.6431
20.219
18.4869
17.7393
18.0685
19.3601
21.3336
23.617
25.8325
27.6696
28.9309
29.5415
29.5306
28.9951
28.0649
26.8787
25.5767
24.3051
23.2222
22.4941
22.2736
22.6647
23.6836
25.2321
27.0986
28.9946
30.6196
31.7378
32.241
32.1742
31.7122
31.092
30.5235
30.1128
29.8289
29.532
29.0583
28.3305
27.4515
26.7357
26.6524
27.6862
30.1511
34.0188
38.8261
43.7052
47.5458
49.2525
48.0299
43.6106
36.3558
27.1963
17.4258
8.40413
1.25392
-3.36767
-5.36579
-5.15763
-3.50321
-1.27608
0.757181
2.09104
2.53909
2.19876
1.35174
0.342228
-0.527928
-1.0628
-1.18935
-0.938891
-0.411969
0.255841
0.917778
1.42998
1.66306
1.51936
0.958902
0.0293397
-1.11179
-2.1963
-2.87549
-2.78142
-1.60778
0.809932
4.4387
9.03582
14.188
19.3952
24.1779
28.1807
31.2428
33.4173
34.9341
36.1189
37.2919
38.6776
40.349
42.2225
44.0999
45.7428
46.9521
47.6287
47.7951
47.576
47.1454
46.6622
46.2158
45.8023
45.3353
44.6888
43.7516
42.4754
40.8981
39.1344
37.3396
35.6611
34.1962
32.9746
31.9706
31.1402
30.4677
30.0009
29.8576
30.1956
31.1547
32.7867
35.001
37.5469
40.046
42.0695
43.2429
43.3464
42.3821
40.5845
38.3687
36.2303
34.6225
33.8475
33.9901
34.914
36.3163
37.8249
39.1057
39.9487
40.3083
40.2897
40.0884
39.9071
39.8777
40.0135
40.2069
40.2705
40.0061
39.279
38.0704
36.4939
34.7692
33.1636
31.9205
31.1967
31.0271
31.3276
31.9306
32.6412
33.2958
33.8038
34.1617
34.4379
34.7352
35.1455
35.7112
36.4055
37.1367
37.7728
38.1785
38.2523
37.9529
37.3099
36.4154
35.4034
34.4217
33.6051
33.0559
32.8338
32.9561
33.4045
34.1362
35.0947
36.2184
37.4465
38.7207
39.9848
41.1838
42.2624
43.1643
43.8342
44.2205
44.279
43.9777
43.3
42.2476
40.8412
39.1215
37.1485
35.0023
32.7829
30.6096
28.6165
26.9442
25.7256
25.067
25.0281
25.6052
26.722
28.2331
29.9401
31.619
33.0545
34.0744
34.5781
34.5541
34.0844
33.3346
32.531
31.9261
31.7549
32.1864
33.2777
34.9389
36.9243
38.8588
40.3076
40.8839
40.3774
38.8712
36.8091
34.9767
34.3774
36.0085
40.5774
48.2226
58.32
69.4443
79.5283
86.2131
87.3296
81.4085
68.0954
48.3596
24.4262
-0.57126
-23.1533
-40.1512
-49.3084
-49.6934
-41.83
-27.527
-9.45558
9.41569
26.3952
39.524
47.8268
51.3284
50.8647
47.7614
43.4755
39.2841
36.0817
34.3068
33.9841
34.8408
36.452
38.3703
40.2162
41.7208
42.7316
43.195
43.135
42.6348
41.8256
40.8775
39.986
39.3499
39.1402
39.4667
40.3506
41.7129
43.3842
45.1355
46.7259
47.9539
48.6998
48.9495
48.7901
48.38
47.8993
47.4941
47.2294
47.064
46.8564
46.4013
45.4878
43.9669
41.8074
39.1262
36.1801
33.3213
30.9218
29.2878
28.5833
28.7844
29.6773
30.9032
32.0412
32.7088
32.6564
31.8319
30.3966
28.6896
27.1471
26.1971
26.1567
27.1566
29.1132
31.7542
34.6905
37.5138
39.8949
41.6564
42.8023
43.4991
44.0173
44.65
45.634
47.0944
49.0235
51.2994
53.7309
56.1155
58.2903
60.1622
61.7127
62.9778
64.0164
64.8785
65.5854
66.1272
66.4763
66.6091
66.5249
66.2535
65.8477
65.3623
64.8304
64.2452
63.5591
62.7026
61.6188
60.3024
58.8284
57.3557
56.101
55.2835
55.0544
55.433
56.2693
57.2503
57.9554
57.9498
56.8966
54.6551
51.3399
47.3182
43.1441
39.4401
36.7573
35.4461
35.5739
36.91
38.9826
41.1957
42.9726
43.893
43.7864
42.7603
41.1562
39.4482
38.1104
37.4886
37.7096
38.6517
39.9819
41.2509
42.0194
41.9842
41.0691
39.4573
37.5548
35.892
34.9868
35.2041
36.6479
39.115
42.1258
45.026
47.1372
47.9169
47.0882
44.7046
41.134
36.9662
32.8702
29.44
27.07
25.8897
25.7689
26.3842
27.3186
28.164
28.5957
28.4084
27.5179
25.9462
23.8129
21.346
18.9097
17.0279
16.3716
17.68
21.6058
28.5014
38.1962
49.835
61.8483
72.1019
78.2279
78.0886
70.2754
54.522
31.9164
4.83964
-23.3813
-49.0445
-68.7475
-80.0168
-81.7496
-74.3701
-59.6732
-40.4006
-19.6583
-0.312652
15.4989
26.6473
33.0432
35.4464
35.1278
33.4862
31.7149
30.5895
30.4038
31.0386
32.1165
33.1853
33.8728
33.9809
33.5077
32.6104
31.5361
30.5472
29.8631
29.6288
29.9065
30.6847
31.8938
33.4244
35.1465
36.9319
38.682
40.3581
42.006
43.7647
45.8491
48.5032
51.9315
56.223
61.2916
66.8532
72.4528
77.5397
81.5766
84.1536
85.0776
84.4117
82.4542
79.6604
76.5298
73.4893
70.8013
68.521
66.5109
64.5051
62.2034
59.3686
55.9024
51.8799
47.5382
43.2225
39.3057
36.1009
33.788
32.3698
31.669
31.3651
31.0648
30.3916
29.0746
27.0175
24.3305
21.3162
18.4099
16.0855
14.7488
14.6425
15.7885
17.9822
20.8421
23.9037
26.7326
29.0276
30.6857
31.8118
32.6719
33.6038
34.9117
36.7754
39.2006
42.0214
44.9524
47.6728
49.9141
51.5255
52.4986
52.9462
53.0466
52.9731
52.8349
52.6466
52.337
51.789
50.8968
49.616
47.9901
46.1425
44.2377
42.4269
40.7967
39.3425
37.9755
36.5614
34.9802
33.1822
31.2244
29.2703
27.554
26.3194
25.7531
25.9325
26.8048
28.2006
29.8767
31.5712
33.0533
34.1555
34.782
34.8982
34.5136
33.6689
32.4361
30.9285
29.3126
27.808
26.6645
26.1148
26.311
27.2662
28.8223
30.6634
32.3791
33.5673
33.9488
33.4607
32.2962
30.8751
29.746
29.4461
30.3548
32.5837
35.934
39.9333
43.942
47.3002
49.4739
50.1658
49.3632
47.3197
44.4818
41.3852
38.551
36.4005
35.2027
35.0527
35.8724
37.4253
39.3402
41.1458
42.3256
42.3965
41.0103
38.0633
33.7846
28.7694
23.9281
20.3382
19.0137
20.6359
25.3086
32.4096
40.594
47.9742
52.4566
52.1732
45.914
33.4569
15.7123
-5.36496
-27.0869
-46.5059
-60.9499
-68.5043
-68.338
-60.8084
-47.3312
-30.0552
-11.4215
6.29078
21.3382
32.7346
40.294
44.507
46.3024
46.7622
46.8615
47.2858
48.3554
50.0524
52.1245
54.2233
56.0349
57.3688
58.1904
58.5965
58.754
58.8234
58.8945
58.9513
58.8743
58.4764
57.5621
55.9915
53.7335
50.8967
47.7274
44.5787
41.852
39.9244
39.0745
39.42
40.8816
43.1813
45.8792
48.4449
50.3517
51.1763
50.6844
48.8807
46.0131
42.5257
38.9695
35.8885
33.7062
32.6367
32.6417
33.4404
34.5727
35.498
35.71
34.8402
32.7301
29.4586
25.3208
20.7663
16.3133
12.4551
9.58089
7.92135
7.52874
8.28941
9.96276
12.2354
14.7787
17.2977
19.5654
21.4376
22.85
23.8026
24.3373
24.5171
24.4103
24.0854
23.6132
23.0755
22.5717
22.221
22.1535
22.4907
23.3191
24.6625
26.4624
28.5742
30.7843
32.8464
34.5316
35.681
36.2468
36.3103
36.0712
35.8056
35.8047
36.3046
37.4271
39.1448
41.2798
43.539
45.5754
47.0641
47.7726
47.6106
46.6467
45.089
43.235
41.4027
39.8601
38.7701
38.1628
37.9425
37.9246
37.8948
37.6721
37.1618
36.3828
35.4635
34.6072
34.0368
33.9334
34.3855
35.3611
36.7106
38.1989
39.5574
40.5431
40.991
40.8479
40.1819
39.1684
38.057
37.1279
36.6467
36.823
37.7782
39.5249
41.9581
44.8597
47.9174
50.7568
52.9858
54.2485
54.2792
52.9514
50.3093
46.5761
42.1345
37.478
33.14
29.6083
27.2402
26.1905
26.3712
27.4524
28.9157
30.1558
30.6211
29.966
28.1824
25.6705
23.2173
21.8656
22.6832
26.4709
33.4739
43.172
54.2202
64.5826
71.8579
73.7454
68.558
55.6627
35.7368
10.7634
-16.2525
-41.798
-62.4896
-75.6951
-80.0021
-75.4317
-63.3579
-46.1625
-26.7164
-7.81148
8.32722
20.3534
27.8877
31.3946
31.9074
30.6901
28.9249
27.4926
26.8782
27.1946
28.2878
29.873
31.6559
33.4058
34.9751
36.2769
37.245
37.8036
37.8635
37.3484
36.2398
34.6197
32.6905
30.757
29.1709
28.2483
28.1858
29.0008
30.5166
32.4019
34.2554
35.7152
36.5604
36.7742
36.5487
36.2275
36.199
36.7731
38.0762
39.9981
42.2079
44.2384
45.6142
45.9879
45.2435
43.5355
41.2512
38.9068
37.0059
35.9034
35.7126
36.2828
37.2526
38.1602
38.58
38.2424
37.1059
35.3619
33.3751
31.5804
30.3671
29.9842
30.4905
31.7576
33.5206
35.4566
37.2655
38.733
39.7621
40.3696
40.6583
40.7753
40.8726
41.0787
41.4858
42.1477
43.0847
44.2872
45.7151
47.293
48.9065
50.4035
51.6071
52.3403
52.4584
51.8834
50.6288
48.8097
46.6305
44.3534
42.2529
40.5662
39.4516
38.9636
39.0502
39.5731
40.3441
41.1684
41.8853
42.3951
42.6694
42.7418
42.685
42.581
42.4931
42.4464
42.422
42.3639
42.1952
41.8401
41.2429
40.382
39.2759
37.9807
36.5823
35.1858
33.9033
32.8435
32.1007
31.7447
31.811
32.2903
33.1229
34.1972
35.3587
36.4282
37.2304
37.6274
37.5508
37.0239
36.1674
35.1828
34.3161
33.8064
33.832
34.4655
35.6522
37.2167
38.8996
40.4152
41.5154
42.0444
41.9688
41.3755
40.4412
39.382
38.4027
37.6594
37.2477
37.2161
37.5939
38.4177
39.7382
41.5997
43.9927
46.8005
49.7635
52.4889
54.521
55.4654
55.1412
53.7101
51.7353
50.1242
49.9476
52.1579
57.2708
65.0953
74.6019
83.9876
90.9554
93.1653
88.7622
76.857
57.8378
33.4192
6.40402
-19.8045
-41.8332
-56.9732
-63.6733
-61.7855
-52.5138
-38.0926
-21.2796
-4.78929
9.20425
19.3915
25.4278
27.8153
27.6237
26.1367
24.5177
23.5694
23.6277
24.5918
26.0597
27.5149
28.5105
28.8015
28.4
27.5479
26.6251
26.0245
26.0325
26.7484
28.0646
29.7144
31.3711
32.7686
33.8059
34.5964
35.4421
36.7317
38.7879
41.71
45.2645
48.8673
51.6756
52.7751
51.4165
47.2335
40.3787
31.531
21.7678
12.3334
4.36543
-1.34513
-4.49762
-5.29621
-4.34046
-2.43247
-0.361645
1.27239
2.15609
2.26466
1.78762
1.01462
0.224104
-0.391766
-0.751137
-0.861653
-0.775641
-0.546909
-0.208731
0.220392
0.710887
1.19366
1.54835
1.62096
1.2714
0.438231
-0.80144
-2.20061
-3.35712
-3.7788
-2.98811
-0.641818
3.3655
8.84332
15.3116
22.0742
28.3454
33.3995
36.7109
38.0494
37.5124
35.487
32.5555
29.3682
26.5147
24.421
23.2938
23.115
23.6835
24.6859
25.779
26.6633
27.1368
27.121
26.6592
25.8927
25.0206
24.2532
23.7663
23.6648
23.9622
24.5803
25.3705
26.1527
26.7634
27.1001
27.1511
26.9994
26.7977
26.7215
26.9119
27.4262
28.2124
29.1178
29.9306
30.444
30.5226
30.1514
29.4498
28.6454
28.0133
27.7984
28.1436
29.0451
30.3488
31.7888
33.0564
33.8814
34.1011
33.6993
32.8052
31.6541
30.522
29.654
29.2037
29.2013
29.5554
30.0854
30.5755
30.8334
30.7392
30.2723
29.5116
28.611
27.7568
27.1203
26.8164
26.8783
27.2533
27.8194
28.417
28.8888
29.116
29.0443
28.6935
28.1491
27.5402
27.0086
26.6781
26.6306
26.8945
27.4476
28.2315
29.1715
30.1954
31.2429
32.2613
33.1871
33.9195
34.2949
34.0746
32.9577
30.623
26.7999
21.3528
14.3635
6.18371
-2.559
-11.0152
-18.2243
-23.2646
-25.4131
-24.2808
-19.892
-12.6893
-3.46092
6.79204
17.02
26.2855
33.8868
39.4258
42.8112
44.2104
43.9663
42.5068
40.2659
37.6307
34.9184
32.3774
30.2019
28.5493
27.55
27.3061
27.8796
29.2731
31.4131
34.1406
37.2163
40.343
43.2053
45.5195
47.0865
47.8349
47.8427
47.3287
46.6115
46.0409
45.9166
46.4132
47.532
49.0949
50.7856
52.2302
53.097
53.1886
52.5004
51.2265
49.7087
48.3425
47.4642
47.2518
47.669
48.4695
49.2611
49.614
49.1804
47.7929
45.5125
42.6114
39.4977
36.6006
34.2535
32.6065
31.5949
30.9739
30.4068
29.5819
28.3219
26.6531
24.8119
23.1869
22.2125
22.2439
23.4501
25.7569
28.8542
32.2672
35.4699
38.0091
39.6046
40.1991
39.9478
39.1534
38.1697
37.3023
36.7359
36.5053
36.5145
36.5927
36.567
36.3255
35.8555
35.2431
34.6416
34.2197
34.1079
34.3613
34.9469
35.7581
36.6483
37.4707
38.1115
38.5071
38.6434
38.5405
38.2313
37.743
37.0888
36.2712
35.2947
34.1821
32.9872
31.7983
30.7318
29.9149
29.4625
29.4531
29.9087
30.7817
31.9536
33.2447
34.4364
35.3036
35.6551
35.3745
34.4552
33.0191
31.313
29.6777
28.4921
28.1022
28.748
30.506
33.2623
36.724
40.4702
44.0311
46.9784
49.0056
49.9797
49.9518
49.1257
47.7935
46.2564
44.7523
43.4112
42.2491
41.2028
40.1922
39.188
38.2601
37.5823
37.3855
37.8665
39.0792
40.8466
42.7344
44.1132
44.313
42.8387
39.5917
35.0208
30.1402
26.3727
25.2321
27.905
34.8372
45.4449
58.0546
70.1206
78.7016
81.0993
75.5107
61.5278
40.3489
14.6308
-11.9958
-35.6431
-52.9448
-61.7158
-61.3408
-52.8093
-38.4069
-21.1528
-4.12982
10.1301
20.0717
25.2766
26.3534
24.619
21.6734
18.9825
17.567
17.8504
19.679
22.4766
25.4751
27.951
29.4088
29.6759
28.9011
27.4732
25.8928
24.6378
24.0562
24.3086
25.3663
27.0563
29.1333
31.3538
33.533
35.5697
37.4389
39.1606
40.7592
42.2325
43.5385
44.6075
45.3712
45.7968
45.9117
45.8074
45.6194
45.4886
45.5181
45.7404
46.1079
46.5108
46.8178
46.9243
46.7923
46.4673
46.0639
45.7263
45.5745
45.6567
45.9227
46.2308
46.3846
46.1921
45.5254
44.3654
42.8142
41.0731
39.3918
38.0029
37.0621
36.6109
36.5711
36.7729
37.0065
37.0824
36.8826
36.3892
35.6835
34.9161
34.2583
33.8494
33.7524
33.9329
34.2639
34.5571
34.6106
34.2619
33.4328
32.1534
30.5617
28.8772
27.3554
26.2351
25.6889
25.7911
26.5075
27.7097
29.2091
30.8003
32.3025
33.5894
34.5997
35.329
35.8071
36.0723
36.1498
36.0453
35.7532
35.2773
34.6544
33.9692
33.353
32.961
32.9354
33.362
34.2375
35.4583
36.8373
38.1472
39.1764
39.7825
39.9254
39.6702
39.1582
38.5573
38.0088
37.5878
37.2933
37.0674
36.8381
36.5664
36.2791
36.0734
36.0888
36.4553
37.2368
38.3901
39.7581
41.1013
42.1612
42.7364
42.7452
42.2565
41.4738
40.678
40.1441
40.0556
40.443
41.1655
41.9413
42.421
42.2836
41.3319
39.5604
37.1763
34.5666
32.2136
30.5781
29.9734
30.466
31.8278
33.5641
35.0194
35.5483
34.7132
32.4614
29.2263
25.9082
23.7175
23.8964
27.3712
34.4205
44.4474
55.9375
66.6383
73.9491
75.4475
69.4406
55.4102
34.2372
8.13904
-19.6792
-45.5922
-66.2173
-79.0263
-82.7756
-77.6647
-65.2039
-47.8344
-28.4027
-9.61213
6.4288
18.4765
26.2085
30.0856
31.0813
30.3633
29.007
27.8003
27.1654
27.1888
27.7257
28.5315
29.3776
30.123
30.7315
31.2452
31.7348
32.2526
32.8049
33.3525
33.8353
34.2054
34.456
34.631
34.8117
35.0866
35.5144
36.0965
36.7688
37.4183
37.9192
38.1767
38.1636
37.9376
37.6304
37.4138
37.4493
37.8389
38.5888
39.599
40.6796
41.5906
42.0939
42.0053
41.2346
39.8062
37.8578
35.6189
33.3752
31.4243
30.0303
29.3832
29.5683
30.5503
32.1767
34.2005
36.3227
38.2466
39.7353
40.6587
41.0181
40.9406
40.6426
40.3693
40.3269
40.6248
41.2445
42.0453
42.8053
43.2868
43.3065
42.7897
41.793
40.4876
39.1088
37.8881
36.9878
36.4591
36.2355
36.1651
36.0696
35.8125
35.3544
34.778
34.2732
34.0857
34.4438
35.4832
37.1927
39.3967
41.7809
43.9559
45.5417
46.253
45.9613
44.7192
42.7418
40.3509
37.8983
35.6903
33.9316
32.7037
31.9798
31.6669
31.6601
31.8878
32.3344
33.0311
34.0211
35.3123
36.8371
38.4364
39.8782
40.9076
41.3156
41.0045
40.0282
38.5924
37.0123
35.6372
34.7654
34.5715
35.0696
36.1204
37.4786
38.8647
40.0391
40.8548
41.2783
41.3743
41.2649
41.0804
40.9184
40.8243
40.7959
40.8059
40.8312
40.8741
40.9678
41.1633
41.5025
41.9902
42.5737
43.1419
43.5439
43.6264
43.2781
42.4702
41.2806
39.8928
38.5655
37.5764
37.1512
37.3922
38.229
39.4079
40.5334
41.1633
40.9407
39.7344
37.7465
35.545
33.9936
34.0731
36.6197
42.0379
50.0623
59.6452
69.0248
75.9879
78.2898
74.1506
62.7121
44.3432
20.7059
-5.45246
-30.7488
-51.7678
-65.6893
-70.8037
-66.8039
-54.7957
-37.032
-16.4388
3.95659
21.5694
34.663
42.5449
45.5344
44.7342
41.6796
37.9542
34.8599
33.2031
33.2269
34.68
36.9842
39.4462
41.4564
42.6307
42.8694
42.3341
41.3607
40.3415
39.6101
39.3596
39.6094
40.2236
40.969
41.5921
41.8937
41.7795
41.2786
40.5253
39.7143
39.0432
38.6589
38.621
38.8939
39.3643
39.8813
40.3049
40.5499
40.6106
40.5625
40.536
40.6734
41.0784
41.7755
42.6897
43.6552
44.4522
44.8611
44.7221
43.9814
42.7105
41.0932
39.3817
37.8328
36.6422
35.8943
35.5428
35.4275
35.3228
35.0066
34.3286
33.2596
31.9072
30.4922
29.2905
28.5566
28.448
28.9728
29.9756
31.1671
32.1924
32.7203
32.5314
31.581
30.0202
28.1666
26.4324
25.2271
24.8578
25.4555
26.9426
29.0526
31.3936
33.5413
35.1343
35.9509
35.9473
35.252
34.1205
32.866
31.785
31.0966
30.9086
31.2137
31.9106
32.8403
33.8241
34.6948
35.314
35.5796
35.425
34.818
33.7629
32.3066
30.545
28.624
26.7305
25.0712
23.8391
23.1775
23.147
23.7074
24.7198
25.9703
27.2134
28.2233
28.845
29.0309
28.8555
28.5041
28.2358
28.3289
29.0199
30.448
32.6191
35.3966
38.5215
41.6594
44.4625
46.6342
47.9801
48.4363
48.0684
47.0447
45.5937
43.9578
42.3562
40.9635
39.9037
39.2537
39.0462
39.2638
39.8245
40.5662
41.2436
41.5552
41.2079
40.013
37.9933
35.4654
33.056
31.627
32.1005
35.2119
41.2445
49.8211
59.8229
69.4836
76.6646
79.2669
75.6933
65.2517
48.396
26.7342
2.79006
-20.4373
-40.0196
-53.6287
-59.933
-58.7769
-51.1169
-38.7442
-23.8704
-8.68375
5.02854
16.1143
24.1198
29.1956
31.8977
32.9511
33.042
32.6844
32.1774
31.6398
31.0904
30.5323
30.0102
29.6217
29.4865
29.6933
30.2489
31.0555
31.9267
32.6402
33.0097
32.9519
32.5236
31.9181
31.4173
31.3176
31.8502
33.1219
35.0929
37.598
40.4008
43.2632
46.0071
48.55
50.9056
53.1523
55.384
57.6596
59.9703
62.2318
64.3044
66.0301
67.2743
67.9572
68.0678
67.6549
66.8035
65.6042
64.1271
62.4087
60.4543
58.2533
55.8028
53.128
50.2956
47.4145
44.6238
42.0731
39.8999
38.2095
37.0615
36.4641
36.3748
36.7048
37.3246
38.0703
38.7527
39.1705
39.1314
38.4829
37.1476
35.1577
32.6758
29.9941
27.5019
25.6241
24.7374
25.0838
26.7024
29.3991
32.7689
36.2686
39.3277
41.4715
42.4254
42.174
40.9596
39.2175
37.4676
36.1882
35.7052
36.1234
37.3158
38.9689
40.6692
42.0056
42.6603
42.4684
41.4343
39.7089
37.5394
35.2102
32.9907
31.1032
29.7111
28.9233
28.8042
29.3778
30.6195
32.4374
34.6506
36.9792
39.0611
40.501
40.9526
40.2146
38.3176
35.5679
32.5268
29.9131
28.4426
28.639
30.6648
34.2247
38.5775
42.6677
45.3521
45.6682
43.075
37.6002
29.8515
20.8858
11.9708
4.30099
-1.25687
-4.32618
-5.05402
-4.01765
-2.03825
0.0417931
1.55846
2.15538
1.81959
0.826861
-0.378399
-1.33165
-1.68624
-1.30919
-0.315299
0.965963
2.08231
2.58909
2.18873
0.844548
-1.16466
-3.27392
-4.75237
-4.89796
-3.26529
0.132793
4.71345
9.35136
12.5632
12.8244
8.95225
0.460787
-12.2095
-27.6615
-43.737
-57.907
-67.7723
-71.5575
-68.4795
-58.9021
-44.2409
-26.6445
-8.5362
7.87463
20.9937
30.0715
35.2218
37.2475
37.3339
36.7008
36.3012
36.6368
37.7197
39.1723
40.4214
40.9228
40.3532
38.7211
36.3722
33.8987
31.9816
31.2133
31.9475
34.2138
37.7152
41.9043
46.1157
49.7178
52.2481
53.4988
53.5378
52.6665
51.3278
49.9946
49.0644
48.7851
49.2247
50.2851
51.75
53.349
54.8201
55.9564
56.6294
56.7895
56.4497
55.6627
54.4984
53.0292
51.3232
49.4451
47.4588
45.4298
43.4224
41.4945
39.6883
38.0236
36.495
35.0761
33.7304
32.4274
31.1584
29.9477
28.8541
27.96
27.3496
27.0808
27.1586
27.5197
28.0341
28.5284
28.8249
28.7897
28.3733
27.6319
26.7196
25.8499
25.2354
25.022
25.2376
25.7728
26.4023
26.8437
26.8397
26.2384
25.0505
23.4618
21.798
20.4488
19.7722
20.0043
21.2018
23.2295
25.7978
28.5365
31.085
33.1734
34.6753
35.62
36.1654
36.543
36.9915
37.6983
38.7599
40.1712
41.8384
43.6097
45.3132
46.7907
47.9226
48.6396
48.9244
48.8056
48.3502
47.6541
46.8358
46.0286
45.372
44.9991
45.0205
45.5069
46.4726
47.865
49.5641
51.3937
53.1441
54.6023
55.584
55.9601
55.6714
54.7285
53.1972
51.1739
48.7607
46.0471
43.107
40.0112
36.8521
33.7677
30.9536
28.6493
27.0945
26.46
26.7726
27.8568
29.3225
30.6168
31.1419
30.421
28.2722
24.9378
21.1211
17.8969
16.4952
17.9945
22.9929
31.3428
42.0307
53.2556
62.7118
68.0308
67.2896
59.4694
44.7532
24.5824
1.44964
-21.5349
-41.2101
-54.9413
-61.0841
-59.239
-50.2532
-35.9826
-18.8806
-1.51257
13.8991
25.81
33.5169
37.1391
37.4482
35.6037
32.8629
30.325
28.7562
28.5118
29.5544
31.5434
33.966
36.2755
38.0089
38.8662
38.7425
37.7174
36.0093
33.9122
31.7286
29.7156
28.0508
26.8246
26.0551
25.7166
25.7718
26.1963
26.9871
28.1531
29.6931
31.5682
33.6813
35.8719
37.9316
39.6373
40.7943
41.2782
41.0627
40.227
38.9404
37.4288
35.9324
34.6657
33.788
33.39
33.494
34.0651
35.0258
36.2699
37.6733
39.1026
40.4246
41.5181
42.2897
42.6885
42.7167
42.4274
41.9102
41.2632
40.5614
39.8297
39.0328
38.0863
36.8914
35.38
33.5602
31.5423
29.5359
27.8135
26.6501
26.253
26.7054
27.94
29.7533
31.8577
33.9562
35.8171
37.3273
38.5066
39.4811
40.4255
41.4931
42.7585
44.1901
45.6619
46.9977
48.0332
48.6731
48.9232
48.8884
48.7371
48.6447
48.7365
49.0476
49.5142
49.9956
50.3201
50.3375
49.9613
49.1873
48.086
46.7722
45.3656
43.9555
42.5813
41.2347
39.879
38.4785
37.0249
35.5519
34.1324
32.8604
31.8228
31.073
30.614
30.3967
30.3349
30.3302
30.3017
30.2078
30.057
29.9017
29.8199
29.8884
30.1576
30.6332
31.2707
31.983
32.6573
33.1777
33.4459
33.3981
33.0159
32.3314
31.4297
30.447
29.5638
28.9876
28.9228
29.5251
30.8478
32.7925
35.0831
37.2826
38.8637
39.3324
38.3799
36.0281
32.7168
29.2924
26.8733
26.6011
29.3227
35.2787
43.8869
53.6983
62.5683
68.0329
67.8238
60.4101
45.4352
23.932
-1.75449
-28.3392
-52.1932
-70.0358
-79.5659
-79.89
-71.6498
-56.8285
-38.2868
-19.1475
-2.17387
10.7181
18.7131
22.0825
21.9337
19.81
17.2558
15.4549
15.0215
15.9737
17.8661
20.0245
21.8026
22.7877
22.9066
22.4161
21.7968
21.5914
22.2409
23.9623
26.6978
30.1384
33.8098
37.1886
39.82
41.4062
41.8519
41.2623
39.9012
38.1255
36.3104
34.7821
33.7669
33.364
33.5423
34.1604
35.0055
35.8446
36.479
36.7912
36.7726
36.525
36.2304
36.0967
36.2891
36.8691
37.7567
38.7332
39.4872
39.6936
39.1079
37.6448
35.4201
32.7381
30.0262
27.7329
26.2177
25.6647
26.0444
27.135
28.5951
30.0646
31.2633
32.0563
32.47
32.6557
32.8171
33.1275
33.666
34.3926
35.1702
35.8231
36.2118
36.2953
36.161
36.009
36.0958
36.6543
37.8152
39.5553
41.6872
43.8966
45.8156
47.1126
47.5736
47.1542
45.9893
44.3594
42.6246
41.1424
40.1909
39.9138
40.2964
41.177
42.2851
43.2981
43.9038
43.8564
43.0189
41.3861
39.0876
36.3699
33.5611
31.0218
29.0878
28.0127
27.9188
28.767
30.3529
32.3331
34.2809
35.7619
36.4152
36.0247
34.5626
32.1958
29.2527
26.157
23.3442
21.1786
19.8916
19.5516
20.0711
21.2457
22.8127
24.512
26.1353
27.5536
28.7193
29.6478
30.3887
30.9962
31.5087
31.942
32.2958
32.567
32.7646
32.9175
33.0709
33.2728
33.5515
33.8951
34.237
34.4585
34.4088
33.9436
32.972
31.5018
29.667
27.7249
26.0155
24.8862
24.5971
25.2295
26.6304
28.4151
30.0442
30.9664
30.7975
29.4877
27.4218
25.4065
24.522
25.8545
30.1627
37.5602
47.3087
57.7967
66.7423
71.6009
70.1027
60.8014
43.5014
19.4489
-8.77738
-37.6689
-63.4084
-82.5754
-92.7825
-93.1014
-84.1878
-68.0854
-47.763
-26.4985
-7.25099
7.84131
17.7421
22.5375
23.2225
21.3288
18.5007
16.1207
15.0634
15.6136
17.5395
20.2747
23.1449
25.5736
27.2202
28.0275
28.1845
28.0319
27.9452
28.2314
29.0613
30.4477
32.265
34.2959
36.289
38.0129
39.2979
40.0612
40.3169
40.1714
39.8072
39.4548
39.3542
39.7091
40.6405
42.1484
44.0935
46.2082
48.1382
49.5123
50.025
49.5135
48.0071
45.7347
43.0834
40.5161
38.4676
37.2451
36.9606
37.5128
38.6246
39.9253
41.0544
41.7575
41.9464
41.7086
41.2639
40.8832
40.7965
41.1173
41.8083
42.6956
43.5283
44.0618
44.1394
43.7453
43.0152
42.1994
41.5922
41.4481
41.9092
42.9649
44.453
46.0999
47.5879
48.6289
49.0261
48.7092
47.7373
46.2717
44.5302
42.7359
41.0725
39.6572
38.5333
37.6809
37.0404
36.5396
36.1175
35.7382
35.3948
35.1016
34.8818
34.7534
34.72
34.769
34.8783
35.0289
35.2186
35.4718
35.8402
36.3921
37.192
38.2749
39.6225
41.1492
42.7046
44.0937
45.1132
45.5969
45.4576
44.7161
43.508
42.0622
40.6568
39.5592
38.9648
38.9501
39.4515
40.2774
41.1508
41.7727
41.8914
41.3588
40.1613
38.4168
36.3409
34.1917
32.2108
30.5746
29.3711
28.6029
28.2143
28.1286
28.2826
28.6446
29.211
29.9843
30.9434
32.0186
33.0851
33.9805
34.5417
34.6516
34.2771
33.4851
32.4261
31.2893
30.2407
29.3652
28.6334
27.908
26.9921
25.7078
23.9809
21.9043
19.7534
17.9422
16.9243
17.0647
18.5157
21.1407
24.5132
28.0045
30.9452
32.8222
33.4578
33.1126
32.474
32.5115
34.2239
38.3311
44.9874
53.5987
62.8046
70.6546
74.957
73.735
65.6911
50.5718
29.3381
4.09297
-22.2339
-46.3818
-65.3328
-76.843
-79.8164
-74.4489
-62.1201
-45.0685
-25.9327
-7.26371
8.88894
21.2403
29.3495
33.5265
34.6145
33.7165
31.9347
30.1743
29.0389
28.8142
29.5196
30.9929
32.9796
35.2028
37.4074
39.3804
40.9575
42.0264
42.5324
42.4871
41.9737
41.1439
40.199
39.3566
38.808
38.6753
38.9822
39.6448
40.4896
41.2942
41.8427
41.9807
41.6569
40.9387
39.9973
39.0644
38.3723
38.0916
38.2837
38.8823
39.7081
40.5154
41.0574
41.1533
40.7382
39.8825
38.7742
37.6689
36.8226
36.4238
36.546
37.1322
38.0153
38.9673
39.7624
40.2348
40.3154
40.0369
39.5093
38.8739
38.2536
37.7149
37.2553
36.8192
36.3363
35.7691
35.1517
34.6038
34.3135
34.4898
35.2977
36.7947
38.8899
41.3393
43.7844
45.8249
47.1095
47.4205
46.7291
45.2052
43.1798
41.0676
39.2713
38.092
37.668
37.9567
38.7612
39.7915
40.742
41.3631
41.5113
41.1665
40.418
39.4284
38.387
37.4675
36.7976
36.4435
36.4082
36.6372
37.0291
37.4481
37.7388
37.7468
37.3446
36.4616
35.1104
33.4021
31.5402
29.7908
28.4305
27.6843
27.6682
28.3546
29.5719
31.0426
32.4503
33.5205
34.0905
34.1505
33.842
33.4142
33.1499
33.2815
33.9214
35.0258
36.4026
37.7607
38.7871
39.2301
38.9656
38.0295
36.6058
34.9768
33.447
32.2631
31.5515
31.2896
31.3199
31.4013
31.2844
30.7899
29.8677
28.6196
27.2795
26.1544
25.5414
25.6446
26.5129
28.0168
29.8711
31.6985
33.1162
33.8259
33.6813
32.7212
31.1591
29.3358
27.6481
26.4714
26.0906
26.6521
28.1389
30.3711
33.0243
35.6684
37.821
39.019
38.9041
37.3133
34.3589
30.4736
26.396
23.0791
21.5214
22.5398
26.5304
33.2748
41.8541
50.7131
57.8887
61.3742
59.5499
51.5857
37.7176
19.3177
-1.27572
-21.1461
-37.3302
-47.3785
-49.8203
-44.4294
-32.2313
-15.2556
3.90351
22.6131
38.6924
50.761
58.3809
61.9798
62.5992
61.5484
60.0577
59.0169
58.8476
59.522
60.6965
61.9059
62.7542
63.0465
62.834
62.3685
61.992
62.002
62.5358
63.5112
64.6386
65.5027
65.6868
64.9059
63.1047
60.4921
57.4957
54.6456
52.4167
51.0735
50.5652
50.5055
50.2502
49.0578
46.2908
41.6034
35.0604
27.1507
18.6904
10.64
3.88511
-0.956441
-3.65357
-4.37707
-3.61595
-2.02622
-0.260205
1.17534
1.99866
2.15953
1.78582
1.09891
0.330169
-0.336659
-0.787794
-0.972432
-0.882475
-0.536282
0.0232249
0.717139
1.41713
1.9458
2.10319
1.72116
0.734345
-0.754568
-2.44124
-3.83786
-4.34945
-3.3965
-0.555776
4.31788
11.0243
19.028
27.5492
35.7149
42.7356
48.0629
51.4881
53.1602
53.5197
53.1692
52.7158
52.6274
53.1358
54.2082
55.5868
56.8794
57.6735
57.6427
56.62
54.6268
51.8553
48.6193
45.2867
42.2142
39.6953
37.9277
37
36.8931
37.4905
38.5947
39.9484
41.2608
42.2395
42.6283
42.2452
41.0143
38.9832
36.3208
33.2903
30.2043
27.3664
25.0156
23.2839
22.1779
21.59
21.3355
21.2075
21.0344
20.7275
20.3048
19.8859
19.6586
19.8268
20.5511
21.8999
23.8216
26.1463
28.6161
30.9377
32.8428
34.1421
34.7601
34.7436
34.2419
33.4675
32.6473
31.9774
31.5928
31.5571
31.8704
32.4898
33.3512
34.3857
35.522
36.6787
37.751
38.6023
39.0712
38.9971
38.2638
36.8478
34.8562
32.5346
30.2341
28.3357
27.1469
26.7969
27.1656
27.8771
28.374
28.0693
26.5407
23.719
20.0075
16.2807
13.7393
13.6331
16.9077
23.8616
33.9096
45.5344
56.4673
64.0812
65.925
60.2794
46.605
25.7672
-0.02694
-27.5786
-53.263
-73.6898
-86.3132
-89.862
-84.5021
-71.7123
-53.9147
-33.957
-14.5686
2.09343
14.725
22.9448
27.1703
28.358
27.6877
26.2711
24.9473
24.1937
24.1482
24.7096
25.6706
26.8361
28.0932
29.4216
30.8536
32.4076
34.0288
35.5602
36.7597
37.3584
37.1415
36.0258
34.1079
31.6666
29.1158
26.9213
25.5034
25.1494
25.9596
27.8351
30.5091
33.6075
36.7238
39.4897
41.6291
42.9901
43.5529
43.4208
42.7956
41.9437
41.1548
40.6939
40.754
41.4127
42.6051
44.1212
45.633
46.7528
47.1117
46.4434
44.6535
41.8563
38.3674
34.6528
31.2425
28.6287
27.1704
27.0246
28.1176
30.1621
32.7138
35.2561
37.2935
38.4383
38.4727
37.377
35.3201
32.6144
29.647
26.7995
24.3758
22.5513
21.3563
20.6953
20.3953
20.2702
20.1824
20.0824
20.0175
20.1058
20.4868
21.2637
22.4591
23.9979
25.7242
27.4468
28.9977
30.2827
31.3066
32.1631
32.9916
33.9156
34.9837
36.1334
37.1941
37.9282
38.1015
37.5602
36.2912
34.4445
32.31
30.253
28.6253
27.6788
27.5045
28.0161
28.981
30.0895
31.0426
31.6309
31.7824
31.5671
31.1578
30.7618
30.5448
30.5736
30.7931
31.0481
31.1396
30.8995
30.2591
29.2871
28.1848
27.2375
26.7352
26.885
27.7431
29.1853
30.9274
32.5915
33.7988
34.2658
33.8762
32.7098
31.0212
29.1745
27.5524
26.464
26.0741
26.3704
27.1739
28.1874
29.0666
29.4961
29.2545
28.2554
26.5624
24.3783
22.0134
19.8411
18.2424
17.5457
17.965
19.5425
22.1098
25.2798
28.485
31.0696
32.4283
32.1708
30.2722
27.1641
23.7244
21.1415
20.662
23.2641
29.33
38.4053
49.1236
59.3458
66.5097
68.134
62.372
48.4883
27.1395
0.377974
-28.6389
-56.1834
-78.6267
-93.0984
-97.9967
-93.2401
-80.2143
-61.438
-40.0293
-19.098
-1.1943
12.0754
20.2023
23.6906
23.7787
22.0515
20.0388
18.8922
19.1987
20.9554
23.6862
26.654
29.1033
30.471
30.5184
29.3634
27.4178
25.2603
23.484
22.5624
22.7619
24.1166
26.458
29.4827
32.8301
36.1489
39.1393
41.5686
43.2703
44.1402
44.1408
43.3162
41.8137
39.8953
37.9268
36.334
35.5274
35.8123
37.3059
39.8889
43.2115
46.7567
49.9527
52.3028
53.5019
53.5051
52.5298
50.9898
49.3794
48.1392
47.5405
47.6195
48.1759
48.836
49.1594
48.7594
47.4063
45.0867
42.0087
38.5546
35.1973
32.4027
30.5412
29.8255
30.2844
31.7704
33.9966
36.5893
39.1478
41.3001
42.7514
43.319
42.9528
41.7399
39.8897
37.703
35.5249
33.6905
32.4704
32.0292
32.4033
33.5059
35.1546
37.1161
39.1541
41.0693
42.7209
44.0271
44.9497
45.4717
45.5801
45.2623
44.5185
43.3849
41.9554
40.3918
38.9094
37.7407
37.0827
37.0439
37.6089
38.6349
39.8837
41.0844
42.0066
42.5247
42.6506
42.5247
42.3663
42.3978
42.7669
43.4904
44.439
45.3684
45.9884
46.0507
45.4283
44.1632
42.4681
40.68
39.1788
38.293
38.2171
38.9638
40.3611
42.0959
43.7896
45.0865
45.7323
45.6222
44.8104
43.4796
41.882
40.2702
38.8364
37.6765
36.7876
36.0972
35.5121
34.9719
34.4878
34.1555
34.1353
34.6069
35.71
37.4906
39.8678
42.6319
45.4748
48.0446
50.0098
51.1175
51.2325
50.3519
48.597
46.1885
43.4139
40.5944
38.0516
36.074
34.8806
34.5827
35.1496
36.3931
37.9835
39.5084
40.5739
40.9285
40.5805
39.8649
39.425
40.089
42.6532
47.6128
54.9108
63.7809
72.7504
79.8323
82.8881
80.0936
70.4019
53.8869
31.8726
6.79546
-18.1843
-39.7478
-55.036
-62.1848
-60.6564
-51.2981
-36.1217
-17.8626
0.574535
16.656
28.6331
35.7526
38.2407
37.0926
33.7376
29.6714
26.1394
23.9342
23.3312
24.1537
25.9278
28.0751
30.0896
31.659
32.7108
33.3846
33.9501
34.7001
35.8515
37.4782
39.4918
41.6703
43.7225
45.3693
46.417
46.805
46.614
46.0359
45.315
44.6782
44.2756
44.1477
44.2288
44.3833
44.4628
44.3651
44.0743
43.6707
43.3042
43.1414
43.3036
43.8159
44.5863
45.4224
46.0828
46.3472
46.0821
45.2814
44.0659
42.6426
41.2348
40.0065
39.0084
38.162
37.2925
36.1975
34.7307
32.8708
30.7497
28.6268
26.8161
25.5877
25.0763
25.2301
25.8191
26.5048
26.9498
26.9332
26.432
25.6407
24.9172
24.6735
25.2411
26.7571
29.1073
31.9447
34.7796
37.1133
38.5723
39.0034
38.5012
37.3639
35.9941
34.7793
33.991
33.7293
33.927
34.4018
34.9338
35.3371
35.5034
35.405
35.0667
34.5234
33.7861
32.8354
31.6436
30.2186
28.6467
27.1152
25.8968
25.2974
25.5784
26.8777
29.156
32.1861
35.5917
38.9251
41.7626
43.7911
44.8628
45.0072
44.401
43.3087
42.0143
40.7611
39.7147
38.9507
38.4655
38.1997
38.0654
37.9699
37.8333
37.6003
37.2474
36.7878
36.2718
35.7818
35.4188
35.282
35.4439
35.9276
36.6932
37.639
38.6174
39.4638
40.0286
40.2058
39.9491
39.2746
38.2504
36.9792
35.5807
34.177
32.8848
31.8105
31.0451
30.6563
30.6762
31.0886
31.8201
32.7417
33.6826
34.4557
34.8906
34.8639
34.3229
33.2944
31.8811
30.2464
28.5928
27.1366
26.0814
25.5889
25.7479
26.5438
27.8373
29.3632
30.7618
31.6487
31.7167
30.8503
29.2189
27.3116
25.885
25.812
27.8537
32.3995
39.2471
47.4914
55.5761
61.5242
63.3152
59.3352
48.7953
32.0135
10.4794
-13.3297
-36.354
-55.4949
-68.1819
-72.8364
-69.1355
-58.023
-41.4735
-22.0743
-2.52213
14.8529
28.4398
37.5167
42.2245
43.3764
42.1676
39.8626
37.5322
35.8873
35.2304
35.51
36.4439
37.6669
38.8589
39.8251
40.5179
41.0071
41.4193
41.8732
42.4307
43.078
43.7369
44.2969
44.654
44.7408
44.541
44.0842
43.4297
42.6472
41.8036
40.9607
40.1808
39.5353
39.1056
38.9727
39.1934
39.7726
40.6413
41.6522
42.6017
43.2737
43.497
43.197
42.4246
41.3493
40.2153
39.271
38.6928
38.5267
38.6681
38.8882
38.9013
38.4546
37.4135
35.816
33.8791
31.9536
30.438
29.6765
29.868
31.0118
32.904
35.1849
37.4232
39.2159
40.2759
40.4884
39.9233
38.8044
37.446
36.1742
35.2533
34.8333
34.9277
35.4249
36.1258
36.7983
37.2342
37.2962
36.9451
36.2425
35.3294
34.3866
33.5885
33.0602
32.851
32.9305
33.2083
33.5722
33.9312
34.2509
34.567
34.9704
35.5669
36.4229
37.5146
38.7016
39.735
40.3059
40.1223
38.9949
36.9051
34.0339
30.7389
27.4822
24.7272
22.8312
21.9635
22.0712
22.9021
24.0772
25.1919
25.9172
26.0749
25.6662
24.8522
23.8915
23.0592
22.5682
22.516
22.8679
23.4803
24.1509
24.6827
24.9405
24.8852
24.579
24.1605
23.8004
23.6505
23.8008
24.2563
24.9389
25.7114
26.4182
26.9286
27.1737
27.1661
27.0006
26.8358
26.8627
27.2671
28.1945
29.722
31.8415
34.4543
37.3794
40.3725
43.1558
45.4553
47.0431
47.7768
47.6299
46.7056
45.2279
43.5113
41.9112
40.7647
40.334
40.7601
42.0375
44.0102
46.3882
48.7831
50.7565
51.8815
51.8144
50.3715
47.6033
43.8479
39.7428
36.1745
34.1521
34.6118
38.1795
44.9423
54.29
64.8861
74.8034
81.824
83.8575
79.394
67.8882
49.9771
27.4644
3.06103
-20.0754
-38.9037
-51.0445
-55.1905
-51.2948
-40.5083
-24.8926
-6.98435
10.6843
26.0062
37.5834
44.8344
47.9334
47.6221
44.9559
41.0513
36.8837
33.1643
30.3005
28.4247
27.4656
27.2328
27.4956
28.0378
28.6891
29.3325
29.8965
30.3405
30.6401
30.778
30.7414
30.5272
30.1491
29.6445
29.0763
28.5243
28.07
27.7736
27.6531
27.6716
27.7394
27.7343
27.5373
27.0748
26.3543
25.4827
24.6567
24.1242
24.1257
24.8281
26.2707
28.3393
30.7772
33.2325
35.3313
36.7584
37.3249
37.006
35.9414
34.3981
32.7063
31.1862
30.0816
29.5153
29.4763
29.8375
30.4
30.951
31.3222
31.4348
31.3189
31.1014
30.9646
31.0831
31.5541
32.3418
33.253
33.9551
34.0391
33.1135
30.9083
27.3596
22.6504
17.1929
11.5539
6.34068
2.07694
-0.899235
-2.4903
-2.83567
-2.25552
-1.16145
0.0393119
1.02187
1.5883
1.67594
1.33723
0.704472
-0.047632
-0.734303
-1.18706
-1.27775
-0.943585
-0.211703
0.784229
1.80744
2.55215
2.71131
2.06863
0.592544
-1.49772
-3.72239
-5.40414
-5.79972
-4.27428
-0.474833
5.54591
13.2952
21.9134
30.342
37.5492
42.7539
45.5912
46.1757
45.047
43.0145
40.9466
39.5599
39.2667
40.1145
41.8263
43.9223
45.8785
47.2754
47.8949
47.7444
47.0101
45.9652
44.8679
43.8845
43.0598
42.3403
41.6348
40.8862
40.1254
39.4866
39.1761
39.4068
40.3194
41.9183
44.0462
46.4064
48.6299
50.367
51.3774
51.5917
51.1268
50.2516
49.3126
48.643
48.4795
48.9109
49.87
51.1674
52.5543
53.793
54.7152
55.252
55.431
55.3481
55.1274
54.8837
54.7015
54.632
54.7024
54.9268
55.3065
55.8146
56.3704
56.8188
56.9329
56.4575
55.1931
53.1075
50.4395
47.7512
45.8909
45.8467
48.502
54.3431
63.1919
74.0498
85.1226
94.0561
98.3591
95.936
85.6083
67.4956
43.1479
15.3734
-12.2189
-35.8735
-52.4
-59.7801
-57.5366
-46.7814
-29.9384
-10.2145
9.05709
25.0478
35.9057
40.9792
40.7695
36.6522
30.4592
24.0323
18.8506
15.8034
15.1346
16.5375
19.3503
22.7855
26.1324
28.8927
30.8321
31.9594
32.4549
32.5816
32.6033
32.7279
33.081
33.705
34.576
35.6288
36.7808
37.9516
39.0761
40.1091
41.0257
41.8145
42.469
42.9792
43.325
43.4768
43.4025
43.0799
42.5113
41.734
40.8218
39.876
39.006
38.3045
37.8256
37.5719
37.4951
37.5111
37.5243
37.4546
37.2583
36.9373
36.5351
36.1199
35.7623
35.5131
35.3882
35.3645
35.3864
35.3812
35.2787
35.0297
34.6188
34.0683
33.4331
32.7873
32.2058
31.7459
31.4335
31.2577
31.1755
31.1262
31.0498
30.9053
30.6812
30.3951
30.0829
29.7806
29.5077
29.2581
29.0052
28.7194
28.3919
28.0548
27.786
27.6938
27.8824
28.4088
29.247
30.2755
31.2984
32.0967
32.4968
32.4336
31.9826
31.3461
30.7925
30.5637
30.7817
31.3865
32.133
32.6539
32.5746
31.6466
29.8551
27.4625
24.9661
22.9762
22.0459
22.503
24.3351
27.167
30.3403
33.0785
34.6904
34.755
33.2361
30.4935
27.1886
24.1112
21.9775
21.2522
22.0433
24.0924
26.8588
29.6699
31.8954
33.0995
33.1349
32.1588
30.5753
28.9217
27.7318
27.4091
28.1385
29.8534
32.2615
34.9196
37.3387
39.0944
39.9182
39.7516
38.7498
37.2373
35.6243
34.3049
33.562
33.5006
34.0299
34.8958
35.7594
36.2979
36.3021
35.7413
34.7766
33.7159
32.9208
32.6916
33.1628
34.241
35.6067
36.7846
37.2667
36.6565
34.7949
31.8291
28.2007
24.55
21.5554
19.7496
19.3615
20.2329
21.8403
23.4277
24.2239
23.691
21.7365
18.8217
15.9198
14.3154
15.2749
19.6631
27.6002
38.2584
49.8697
59.9721
65.8613
65.1601
56.3802
39.3436
15.3548
-12.9321
-41.9363
-67.7812
-87.0004
-97.1681
-97.3184
-88.07
-71.4367
-50.3781
-28.198
-7.92426
8.19687
18.9995
24.4468
25.4474
23.508
20.3165
17.3573
15.6393
15.5793
17.0438
19.5129
22.3049
24.7968
26.5834
27.5446
27.8168
27.6947
27.5018
27.4754
27.7001
28.1068
28.53
28.7983
28.8252
28.6646
28.5128
28.6534
29.363
30.8086
32.9702
35.6168
38.3468
40.6826
42.1962
42.6275
41.9623
40.4468
38.5327
36.7686
35.6661
35.5765
36.6098
38.6147
41.2229
43.9408
46.2654
47.7917
48.2895
47.7333
46.2853
44.2413
41.9582
39.7803
37.9828
36.738
36.1071
36.0525
36.4615
37.1759
38.0202
38.8255
39.4503
39.7961
39.8188
39.5351
39.0204
38.3991
37.8248
37.4545
37.4211
37.8076
38.6314
39.8387
41.3125
42.8894
44.3837
45.612
46.4158
46.6786
46.3378
45.3899
43.892
41.9565
39.7419
37.4367
35.2386
33.3304
31.8563
30.903
30.491
30.578
31.0735
31.8622
32.8291
33.8794
34.9488
36.0013
37.0177
37.979
38.8522
39.5851
40.1116
40.3684
40.3168
39.963
39.3703
38.657
37.9797
37.504
37.3698
37.6576
38.3661
39.4044
40.6034
41.7439
42.5966
42.9665
42.7322
41.8721
40.4704
38.703
36.8033
35.0174
33.5581
32.5692
32.1071
32.1451
32.5963
33.3475
34.2921
35.3526
36.4849
37.6664
38.8747
40.0674
41.1752
42.1153
42.8216
43.2828
43.5732
43.8588
44.37
45.3415
46.9336
49.1557
51.8201
54.5456
56.8194
58.1084
57.9969
56.314
53.2167
49.2008
45.0286
41.5847
39.6889
39.907
42.4074
46.8976
52.6641
58.7125
63.9831
67.5975
69.0809
68.5066
66.5205
64.2275
62.9545
63.9305
67.9529
75.1181
84.6856
95.1251
104.351
110.111
110.45
104.145
91.0277
72.0875
49.3506
25.5371
3.57443
-13.9315
-25.1515
-29.3213
-26.8077
-18.9501
-7.72586
4.67705
16.281
25.6468
32.0497
35.4867
36.5349
36.1137
35.2166
34.6729
34.9876
36.2808
38.3218
40.6371
42.6561
43.8578
43.8887
42.6293
40.2056
36.9468
33.3068
29.7672
26.7444
24.5187
23.1978
22.7205
22.8943
23.4582
24.1526
24.7802
25.2447
25.5598
25.8299
26.2101
26.8583
27.8931
29.3656
31.2514
33.4586
35.8476
38.2536
40.5075
42.4511
43.9506
44.9094
45.2835
45.098
44.4594
43.5559
42.6381
41.9784
41.8131
42.28
43.3698
44.9084
46.5796
47.9914
48.7679
48.648
47.5605
45.6543
43.2707
40.8645
38.8907
37.6889
37.3949
37.9048
38.9
39.9265
40.5077
40.2596
38.9805
36.6938
33.6367
30.2004
26.8416
23.9877
21.9582
20.9185
20.8719
21.6853
23.1367
24.9705
26.9453
28.8664
30.5987
32.0636
33.2269
34.0849
34.6548
34.9721
35.093
35.0958
35.0766
35.1351
35.3504
35.7537
36.3045
36.8842
37.3108
37.3784
36.9133
35.8336
34.1935
32.1979
30.176
28.5186
27.5895
27.635
28.7148
30.6744
33.1677
35.7256
37.8537
39.1337
39.3047
38.3057
36.2728
33.4976
30.3617
27.2657
24.571
22.561
21.4252
21.2582
22.065
23.7665
26.2024
29.1362
32.2684
35.2639
37.7959
39.599
40.519
40.5457
39.8156
38.5795
37.1436
35.7965
34.7453
34.0789
33.7688
33.7061
33.7601
33.8391
33.928
34.0915
34.4398
35.0688
35.9988
37.1339
38.2628
39.1017
39.3711
38.8801
37.5909
35.641
33.3124
30.9588
28.9113
27.3942
26.4766
26.0733
25.99
25.9936
25.8802
25.5161
24.8417
23.8446
22.5235
20.87
18.8882
16.6544
14.3947
12.5448
11.7471
12.7555
16.2474
22.5761
31.5305
42.1823
52.8916
61.5078
65.7474
63.681
54.2161
37.4513
14.8012
-11.1615
-37.1281
-59.6544
-75.8067
-83.7065
-82.8496
-74.1342
-59.5986
-41.9439
-23.9603
-7.99197
4.44227
12.8052
17.4637
19.4256
19.9777
20.3227
21.3042
23.2703
26.0895
29.2887
32.2612
34.4783
35.6504
35.8008
35.2445
34.4873
34.0782
34.4574
35.8361
38.1371
41.0054
43.8841
46.1373
47.1899
46.6554
44.4233
40.69
35.9259
30.788
25.997
22.2054
19.8837
19.2483
20.2427
22.5733
25.7866
29.3692
32.845
35.8506
38.1743
39.7575
40.6634
41.0275
41.0048
40.7272
40.2793
39.6944
38.9656
38.0672
36.9778
35.6988
34.267
32.7592
31.2896
29.9996
29.0427
28.5624
28.6658
29.3965
30.712
32.473
34.4501
36.3515
37.8691
38.7351
38.7767
37.9551
36.3775
34.2768
31.964
29.763
27.9463
26.6868
26.0394
25.9537
26.3127
26.9835
27.8616
28.8965
30.0903
31.473
33.0642
34.8397
36.714
38.5484
40.1821
41.4747
42.3461
42.797
42.9033
42.7847
42.5599
42.3042
42.0273
41.6794
41.1859
40.4981
39.6415
38.7404
38.0092
37.7057
38.0606
39.2043
41.1133
43.5974
46.333
48.9354
51.0503
52.4377
53.0231
52.9021
52.2962
51.4769
50.6797
50.0372
49.5504
49.1069
48.5389
47.6996
46.534
45.1176
43.6501
42.4049
41.648
41.5528
42.1366
43.2396
44.5558
45.7059
46.3342
46.2001
45.2397
43.5793
41.4985
39.3534
37.4826
36.1224
35.3538
35.0942
35.135
35.2111
35.0832
34.6088
33.7843
32.7468
31.7375
31.0375
30.8927
31.4472
32.7011
34.5007
36.5628
38.5261
40.017
40.7166
40.416
39.0522
36.7185
33.6531
30.2062
26.7938
23.8401
21.7161
20.679
20.8195
22.0266
23.981
26.1886
28.0568
29.0131
28.6471
26.848
23.9008
20.5029
17.6769
16.5769
18.2123
23.1464
31.2419
41.5286
52.2516
61.118
65.7115
63.9997
54.8195
38.2265
15.6108
-10.4648
-36.6842
-59.5721
-76.1335
-84.3965
-83.7389
-74.9301
-59.8909
-41.2394
-21.7398
-3.7863
10.9661
21.7574
28.6601
32.3473
33.7795
33.9038
33.4426
32.8083
32.1388
31.4118
30.5795
29.6681
28.8118
28.2164
28.0797
28.5061
29.4556
30.7472
32.1186
33.3173
34.1885
34.7281
35.0778
35.4659
36.1136
37.1417
38.5095
40.01
41.3238
42.1139
42.1332
41.3074
39.7705
37.8398
35.9395
34.4961
33.8353
34.1086
35.2666
37.0832
39.2181
41.2991
43.0004
44.0987
44.4975
44.2189
43.3722
42.1106
40.59
38.94
37.2499
35.5707
33.9283
32.3403
30.8314
29.4419
28.2283
27.2545
26.5781
26.2344
26.2228
26.5002
26.9831
27.5598
28.1099
28.5262
28.734
28.701
28.4361
27.9755
27.3637
26.6357
25.8097
24.8942
23.9106
22.9215
22.0518
21.4894
21.4555
22.1449
23.6503
25.8924
28.5823
31.236
33.2503
34.0248
33.1054
30.3073
25.783
20.0112
13.7054
7.66424
2.60217
-0.994407
-2.94987
-3.40271
-2.73526
-1.4553
-0.065769
1.04206
1.64865
1.71279
1.33481
0.696453
-0.000527975
-0.581155
-0.922996
-0.964049
-0.700774
-0.183872
0.485334
1.16089
1.66711
1.82783
1.5103
0.675661
-0.578042
-1.99718
-3.19099
-3.69057
-3.03987
-0.899032
2.86569
8.12962
14.5113
21.4307
28.2123
34.2101
38.9259
42.0939
43.7142
44.03
43.456
42.4775
41.5454
40.9897
40.9705
41.474
42.348
43.3663
44.2999
44.9765
45.3129
45.315
45.0475
44.5899
43.9933
43.258
42.3391
41.1825
39.7768
38.2026
36.658
35.444
34.9068
35.3484
36.9285
39.5873
43.0167
46.6937
49.9749
52.2316
52.9925
52.0588
49.5603
45.9361
41.8441
38.0173
35.1016
33.5093
33.3233
34.2715
35.7807
37.1004
37.4767
36.3426
33.4886
29.1732
24.1426
19.539
16.6986
16.8642
20.8633
28.8191
39.9703
52.6604
64.5303
72.9006
75.2832
69.9212
56.2361
35.0706
8.65306
-19.7286
-46.2883
-67.4262
-80.3878
-83.7565
-77.6711
-63.7294
-44.6066
-23.4859
-3.4352
13.1345
24.8174
31.3165
33.3072
32.1247
29.3674
26.5183
24.6648
24.3601
25.6316
28.1006
31.1644
34.1825
36.6242
38.1539
38.652
38.1861
36.9539
35.221
33.2676
31.3521
29.6903
28.4459
27.7273
27.5871
28.023
28.9816
30.3649
32.0408
33.8554
35.6462
37.2555
38.5431
39.3999
39.7609
39.6194
39.036
38.1404
37.1191
36.1883
35.5526
35.3586
35.6547
36.3684
37.3136
38.2271
38.8294
38.8936
38.3042
37.0873
35.4022
33.4958
31.633
30.0225
28.7617
27.8169
27.0454
26.2505
25.2541
23.961
22.3961
20.7029
19.1035
17.8342
17.0776
16.911
17.2879
18.0559
19.0044
19.9261
20.6726
21.189
21.5172
21.7711
22.0924
22.6012
23.3591
24.3515
25.4963
26.6723
27.7595
28.6783
29.4176
30.0445
30.6929
31.5355
32.7444
34.45
36.7062
39.4689
42.5926
45.8453
48.9408
51.583
53.5151
54.5661
54.684
53.9506
52.5729
50.8494
49.12
47.7045
46.8447
46.6616
47.1359
48.1183
49.3655
50.5952
51.5469
52.0343
51.9797
51.4219
50.499
49.4116
48.3763
47.5803
47.1468
47.1166
47.4476
48.0284
48.7032
49.3007
49.6638
49.6753
49.2768
48.4797
47.3648
46.071
44.7716
43.6434
42.8308
42.4153
42.3958
42.6874
43.1384
43.5645
43.7899
43.6858
43.1971
42.3497
41.2392
40.0061
38.8077
37.7927
37.0878
36.7938
36.9869
37.7178
39.001
40.7944
42.9739
45.3153
47.498
49.14
49.8661
49.3982
47.6439
44.7569
41.1423
37.3933
34.1655
32.0135
31.2325
31.7508
33.1139
34.5767
35.2926
34.5581
32.0497
27.9832
23.1402
18.7337
16.1295
16.4797
20.3556
27.4784
36.6289
45.783
52.4617
54.2332
49.2583
36.755
17.2659
-7.34215
-34.1596
-59.743
-80.7428
-94.5148
-99.5825
-95.8561
-84.5695
-67.965
-48.8075
-29.8465
-13.3418
-0.748007
7.39797
11.3915
12.1267
10.7931
8.58034
6.45658
5.05247
4.65075
5.25557
6.70077
8.7574
11.2117
13.9021
16.7202
19.5903
22.4459
25.2161
27.8272
30.2167
32.3499
34.2312
35.9024
37.4283
38.8742
40.283
41.6608
42.9742
44.1615
45.1521
45.8878
46.3395
46.5137
46.449
46.2035
45.8396
45.4101
44.9502
44.4763
43.9908
43.4888
42.9653
42.418
41.8475
41.2549
40.639
39.9945
39.3131
38.5862
37.8081
36.9786
36.1035
35.1927
34.259
33.3168
32.3834
31.4824
30.6478
29.9255
29.3725
29.0492
29.0079
29.2793
29.8593
30.7012
31.7164
32.7832
33.7639
34.5278
34.975
35.0574
34.7919
34.2636
33.6152
33.0256
32.6777
32.7225
33.2461
34.247
35.6302
37.2215
38.7994
40.1386
41.0549
41.4401
41.2789
40.6449
39.6769
38.545
37.4163
36.4287
35.6781
35.2185
35.069
35.2216
35.6432
36.2724
37.0137
37.7371
38.2887
38.5158
38.3028
37.6064
36.4793
35.0705
33.5982
32.2996
31.3721
30.9214
30.9358
31.2927
31.7975
32.243
32.469
32.4069
32.0923
31.6471
31.2364
31.0164
31.09
31.4833
32.1473
32.9803
33.8614
34.6807
35.3578
35.844
36.1118
36.1391
35.8987
35.3568
34.4841
33.2735
31.7565
30.0118
28.1596
26.3422
24.6973
23.3306
22.2971
21.5969
21.1868
21.0028
20.9895
21.1239
21.4314
21.9846
22.8889
24.2545
26.1624
28.63
31.5843
34.8495
38.1532
41.1554
43.4971
44.8653
45.0632
44.07
42.0772
39.4841
36.8456
34.7751
33.8151
34.3024
36.2617
39.359
42.9402
46.1589
48.1765
48.3929
46.6518
43.3587
39.4667
36.308
35.293
37.5326
43.4717
52.6312
63.5401
73.9033
80.9926
82.1958
75.6069
60.5243
37.7311
9.47855
-20.8443
-49.2944
-72.0939
-86.328
-90.4713
-84.6283
-70.4414
-50.6973
-28.7281
-7.74912
9.71839
22.2228
29.4901
32.2701
31.9846
30.2832
28.6225
27.9649
28.652
30.4575
32.7779
34.8901
36.198
36.4035
35.5676
34.0598
32.4264
31.2251
30.8734
31.5525
33.182
35.4656
37.9836
40.3056
42.0901
43.1511
43.4799
43.2241
42.6347
41.9996
41.5769
41.5448
41.9735
42.8234
43.9643
45.2116
46.3692
47.2693
47.8038
47.9379
47.7075
47.1997
46.5231
45.7762
45.0215
44.2736
43.5037
42.6589
41.6913
40.587
39.3861
38.1871
37.1311
36.37
36.0264
36.1537
36.7099
37.5522
38.4565
39.1588
39.4111
39.0377
37.9805
36.3189
34.2605
32.1016
30.165
28.7312
27.9769
27.9366
28.497
29.4259
30.4277
31.212
31.5589
31.3639
30.6543
29.5738
28.3425
27.2036
26.3721
25.9957
26.1358
26.7675
27.7943
29.0692
30.4167
31.6507
32.5901
33.0733
32.9758
32.2302
30.8463
28.9239
26.6515
24.2849
22.1077
20.3775
19.2728
18.8541
19.0499
19.6761
20.4826
21.2173
21.6895
21.8144
21.628
21.267
20.9213
20.7735
20.9436
21.4563
22.2397
23.155
24.0479
24.805
25.3967
25.8926
26.4437
27.2358
28.4268
30.0866
32.1585
34.4529
36.6797
38.5091
39.6483
39.9129
39.2743
37.8712
35.982
33.9648
32.1818
30.9243
30.359
30.5048
31.2442
32.3632
33.6083
34.7437
35.5976
36.0868
36.2181
36.0702
35.7645
35.4326
35.1904
35.1222
35.2758
35.6659
36.2817
37.0943
38.0602
39.1218
40.2063
41.2261
42.086
42.6978
43.002
42.9915
42.7287
42.3469
42.0294
41.9627
42.273
42.9604
43.8543
44.6134
44.7852
43.9268
41.7643
38.3539
34.1891
30.2068
27.658
27.8467
31.7783
39.7963
51.3063
64.6802
77.4016
86.456
88.9068
82.5396
66.4279
41.2771
9.44905
-25.362
-58.7465
-86.3629
-104.72
-111.789
-107.315
-92.7764
-71.0127
-45.6188
-20.2529
1.99366
19.0411
30.0114
35.1604
35.6054
32.9387
28.8298
24.7009
21.5308
19.7985
19.546
20.5145
22.303
24.5062
26.8052
29.0046
31.028
32.8877
34.6504
36.4082
38.2616
40.3074
42.628
45.2731
48.2381
51.4437
54.7277
57.8598
60.5812
62.6641
63.9759
64.5279
64.4893
64.157
63.884
63.9829
64.6329
65.8171
67.3131
68.7425
69.6674
69.7081
68.6472
66.4898
63.4616
59.9454
56.375
53.1184
50.3845
48.179
46.3221
44.5178
42.4538
39.9007
36.7811
33.1913
29.3719
25.6413
22.3125
19.62
17.6776
16.4739
15.9045
15.826
16.1114
16.6906
17.5625
18.7787
20.4048
22.4757
24.9583
27.736
30.6183
33.3738
35.7756
37.6458
38.8878
39.497
39.5499
39.1774
38.5299
37.7474
36.9387
36.1771
35.5061
34.9534
34.5433
34.3037
34.2657
34.4554
34.8842
35.5403
36.3855
37.3574
38.3758
39.3505
40.1878
40.7959
41.0904
41.002
40.4888
39.5525
38.2542
36.7223
35.1475
33.7582
32.7795
32.3818
32.633
33.4677
34.688
35.9974
37.0659
37.6106
37.4705
36.6563
35.3583
33.9086
32.7049
32.1146
32.3829
33.5689
35.526
37.9307
40.3523
42.3461
43.5472
43.7434
42.9126
41.2188
38.9726
36.566
34.3987
32.8101
32.0278
32.1385
33.0817
34.6642
36.5888
38.4937
39.9986
40.7533
40.4852
39.0429
36.4295
32.8199
28.5556
24.113
20.0437
16.8899
15.0872
14.869
16.194
18.7194
21.8337
24.7577
26.7031
27.0625
25.5899
22.524
18.6101
14.9955
13.0026
13.8151
18.1454
25.9646
36.3751
47.6778
57.6437
63.9475
64.6754
58.7938
46.4647
29.1239
9.2914
-9.85571
-25.0609
-33.5925
-33.7457
-25.1373
-8.73585
13.3674
38.3889
63.3821
85.7529
103.657
116.21
123.494
126.368
126.167
124.349
122.178
120.508
119.697
119.651
119.966
120.123
119.67
118.353
116.165
113.309
110.096
106.822
103.662
100.615
97.523
94.1533
90.3112
85.9495
81.2307
76.5149
72.273
68.9463
66.7962
65.7916
65.5762
65.533
64.9328
63.1313
59.7558
54.8277
48.7824
42.3772
36.5097
31.9986
29.3853
28.8118
30.0058
32.3714
35.156
37.6423
39.3091
39.9221
39.5347
38.4122
36.9112
35.3593
33.9723
32.8323
31.9233
31.2053
30.6903
30.4897
30.8105
31.8991
33.9509
37.0147
40.9256
45.2919
49.5436
53.0349
55.1735
55.5454
54.003
50.6951
46.0338
40.6066
35.0581
29.9679
25.7535
22.6153
20.5332
19.3094
18.6424
18.214
17.7669
17.1572
16.372
15.5099
14.7297
14.1804
13.9277
13.8958
13.8393
13.3581
11.9575
9.1466
4.55521
-1.95863
-10.2424
-19.8499
-30.1192
-40.3167
-49.8117
-58.2314
-65.5429
-72.0257
-78.1312
-84.2596
-90.5242
-96.5813
-101.597
-104.381
-103.673
-98.5049
-88.5363
-74.2589
-56.9955
-38.678
-21.4565
-7.24052
2.70181
7.97952
9.09036
7.2145
3.85876
0.457927
-1.95521
-2.92776
-2.58024
-1.43943
-0.178938
0.643824
0.77289
0.311003
-0.35819
-0.747669
-0.479597
0.540724
2.0501
3.48168
4.13828
3.43703
1.15237
-2.42048
-6.44147
-9.66342
-10.7065
-8.40024
-2.09747
8.13535
21.5159
36.7431
52.3443
67.0705
80.219
91.7764
102.327
112.749
123.775
135.578
147.496
158.018
165.057
166.442
160.506
146.613
125.45
99.018
70.2948
42.6678
19.2711
2.39714
-6.87702
-8.77432
-4.61485
3.59729
13.6752
23.7081
32.3743
39.0585
43.7796
46.9865
49.3011
51.2887
53.3119
55.4875
57.7339
59.8715
61.73
63.2254
64.3878
65.3384
66.2348
67.2087
68.3182
69.5308
70.738
71.7924
72.5533
72.9247
72.8745
72.4318
71.6665
70.6598
69.4771
68.1522
66.6865
65.0625
63.2654
61.3041
59.2246
57.1095
55.0621
53.1811
51.53
50.1124
48.8605
47.6412
46.2813
44.6058
42.4818
39.856
36.7763
33.3922
29.9308
26.6568
23.8233
21.6286
20.1884
19.5298
19.6078
20.336
21.6226
23.3978
25.6246
28.2911
31.3872
34.8769
38.6776
42.6545
46.636
50.4439
53.9297
57.005
59.6541
61.9249
63.9003
65.6606
67.2491
68.6534
69.8097
70.6281
71.0319
70.9969
70.5791
69.9191
69.2241
68.7285
68.6462
69.1249
70.2131
71.847
73.8572
75.9924
77.9542
79.4358
80.1594
79.9088
78.5537
76.0661
72.5246
68.1062
63.0655
57.6998
52.306
47.1343
42.3495
38.007
34.0528
30.347
26.7105
22.9808
19.0664
14.9836
10.8645
6.93236
3.44908
0.647357
-1.3336
-2.48983
-2.95751
-2.97647
-2.81957
-2.70622
-2.72447
-2.78616
-2.63147
-1.88618
-0.159647
2.84159
7.21582
12.8124
19.24
25.9379
32.2941
37.7808
42.0738
45.126
47.1782
48.7055
50.3158
52.6212
56.1131
61.0627
67.4627
75.0192
83.1916
91.2772
98.53
104.302
108.189
110.151
110.583
110.303
110.438
112.207
116.637
124.253
134.831
147.285
159.736
169.793
174.987
173.289
163.591
146.019
122.009
94.1001
65.4867
39.4328
18.6755
4.95877
-1.20441
-0.498757
5.46877
14.6016
24.7863
34.2901
42.0011
47.4786
50.8374
52.528
53.0946
52.9833
52.4446
51.538
50.2128
48.4173
46.1915
43.7062
41.2423
39.1208
37.6155
36.8802
36.9153
37.5815
38.6527
39.8859
41.0853
42.1403
43.0312
43.8068
44.5478
45.3318
46.2114
47.2102
48.3314
49.5709
50.9239
52.3817
53.9192
55.481
56.9748
58.28
59.2716
59.8539
59.9921
59.7306
59.1884
58.5325
57.9333
57.5185
57.336
57.3401
57.4018
57.3416
56.9733
56.147
54.7799
52.8698
50.4902
47.7727
44.882
41.9914
39.2608
36.8192
34.7512
33.0871
31.7979
30.7984
29.9616
29.145
28.2265
27.1431
25.9199
24.6817
23.6362
23.031
23.0915
23.9544
25.6154
27.9086
30.5258
33.0752
35.1668
36.5038
36.9558
36.5941
35.6789
34.5993
33.7815
33.5887
34.2372
35.7506
37.9618
40.5615
43.1768
45.4594
47.1591
48.1639
48.5012
48.3022
47.7459
47.0007
46.1831
45.3429
44.477
43.5624
42.5922
41.6
40.6601
39.8639
39.2789
38.9079
38.6642
38.3773
37.8323
36.8341
35.2801
33.2177
30.8662
28.5929
26.843
26.0417
26.4907
28.289
31.2998
35.1746
39.4284
43.5488
47.1103
49.8643
51.7845
53.0574
54.0261
55.1031
56.6786
59.0443
62.3477
66.5804
71.5908
77.1117
82.79
88.2148
92.9491
96.5738
98.7542
99.3288
98.4067
96.4445
94.2659
92.9908
93.8604
97.97
105.96
117.739
132.319
147.833
161.764
171.367
174.2
168.655
154.358
132.341
104.912
75.2619
46.88
22.9027
5.55709
-4.18686
-6.68179
-3.38797
3.55334
11.8419
19.5052
25.2401
28.5459
29.6466
29.2525
28.2476
27.397
27.1488
27.5676
28.3976
29.2126
29.5966
29.2946
28.2935
26.8191
25.2589
24.0446
23.5308
23.9056
25.1525
27.068
29.3243
31.5555
33.4437
34.7859
35.5285
35.7658
35.7073
35.6246
35.7911
36.4276
37.6657
39.5327
41.96
44.808
47.8995
51.0497
54.0866
56.8566
59.2199
61.0424
62.1945
62.5638
62.0823
60.7622
58.7262
56.2181
53.5805
51.2
49.4273
48.4938
48.4487
49.1381
50.2365
51.3253
51.9977
51.9618
51.1105
49.5389
47.505
45.3466
43.3809
41.8183
40.7163
39.9837
39.4321
38.8542
38.1016
37.1365
36.0419
34.989
34.1749
33.7524
33.7756
34.1797
34.7989
35.4179
35.8381
35.9382
35.7107
35.2612
34.7731
34.4468
34.4317
34.7725
35.385
36.0708
36.5683
36.6265
36.0815
34.9144
33.2723
31.4434
29.792
28.6676
28.314
28.8015
30.004
31.6276
33.284
34.589
35.2587
35.1775
34.4184
33.2125
31.8783
30.7316
30.004
29.7899
30.0376
30.5793
31.1906
31.6564
31.8261
31.6434
31.1455
30.4391
29.6633
28.9527
28.4111
28.1003
28.0425
28.2316
28.6464
29.2621
30.0569
31.0143
32.1219
33.3679
34.7353
36.1943
37.6932
39.1514
40.457
41.476
42.0724
42.1385
41.6273
40.5749
39.1031
37.3935
35.6388
33.9823
32.4681
31.0249
29.4964
27.7214
25.6432
23.414
21.4537
20.4268
21.1222
24.2479
30.1856
38.7684
49.1533
59.8435
68.8817
74.1931
74.0121
67.2991
54.0452
35.3828
13.4638
-8.88289
-28.6455
-43.1718
-50.6431
-50.3783
-42.9074
-29.8054
-13.3353
4.01609
20.0013
32.9792
42.1158
47.3957
49.4642
49.3573
48.1972
46.9269
46.1403
46.033
46.4655
47.1021
47.576
47.6302
47.1981
46.4083
45.5245
44.8457
44.6036
44.8899
45.6332
46.6301
47.6167
48.3553
48.7094
48.6842
48.4215
48.1537
48.1312
48.5454
49.4713
50.8428
52.468
54.0783
55.3968
56.2081
56.4112
56.0429
55.2675
54.3361
53.5256
53.0715
53.1103
53.6437
54.531
55.5132
56.2611
56.4403
55.7766
54.112
51.4373
47.8966
43.763
39.3909
35.1539
31.3814
28.3056
26.028
24.512
23.6005
23.0564
22.6176
22.0554
21.2263
20.1068
18.8017
17.5254
16.5552
16.1671
16.5651
17.8224
19.8483
22.3911
25.0825
27.5129
29.3236
30.2927
30.3924
29.8
28.8582
27.9902
27.5913
27.9228
29.0372
30.7564
32.71
34.4259
35.4522
35.478
34.4211
32.4602
29.9985
27.5699
25.7078
24.8123
25.0488
26.3055
28.2212
30.2772
31.9282
32.7409
32.5007
31.2623
29.3285
27.1666
25.2837
24.0965
23.8293
24.468
25.7795
27.3882
28.8868
29.9477
30.4038
30.2781
29.7556
29.1106
28.6127
28.4423
28.6401
29.1058
29.6436
30.0384
30.1384
29.9174
29.4977
29.1262
29.1109
29.7368
31.1846
33.4762
36.4594
39.838
43.2344
46.2692
48.6353
50.1482
50.7615
50.5485
49.6599
48.2738
46.5548
44.6357
42.6235
40.6229
38.7616
37.2
36.1118
35.6349
35.8034
36.4884
37.3757
38.0074
37.8945
36.6831
34.3344
31.2581
28.3395
26.8223
28.0428
33.0594
42.2641
55.0844
69.879
84.0935
94.6791
98.7044
94.0297
79.8799
57.1641
28.44
-2.49199
-31.2894
-53.9088
-67.3938
-70.4276
-63.5241
-48.8229
-29.5493
-9.28274
8.78579
22.4346
30.7092
33.8984
33.2315
30.4072
27.0952
24.5377
23.3415
23.4801
24.4732
25.6592
26.4681
26.611
26.143
25.397
24.8287
24.8345
25.6042
27.0558
28.8648
30.5747
31.7453
32.0921
31.5726
30.3978
28.968
27.7581
27.1882
27.517
28.7879
30.8368
33.355
35.9839
38.412
40.4476
42.0496
43.3124
44.4169
45.5629
46.9065
48.5167
50.362
52.3245
54.2329
55.9038
57.1777
57.9434
58.1475
57.7925
56.9286
55.6436
54.0557
52.3073
50.5583
48.9752
47.7141
46.8965
46.5846
46.7591
47.3087
48.0361
48.6816
48.9639
48.6289
47.4984
45.508
42.7243
39.3379
35.6314
31.9278
28.5301
25.6646
23.4389
21.8275
20.6862
19.7948
18.9195
17.879
16.5996
15.1441
13.7047
12.5603
12.0064
12.2751
13.4647
15.4991
18.1305
20.9846
23.6419
25.7332
27.0245
27.471
27.2236
26.586
25.9354
25.625
25.8974
26.8291
28.3209
30.1357
31.9695
33.5373
34.6465
35.2403
35.3986
35.2997
35.1543
35.1353
35.3215
35.6764
36.0637
36.2985
36.2159
35.7363
34.9072
33.907
33.0071
32.5028
32.6309
33.497
35.0345
37.0081
39.0608
40.7955
41.8672
42.0632
41.3507
39.8795
37.9427
35.9072
34.1332
32.9059
32.3935
32.6391
33.5831
35.1039
37.0619
39.3316
41.8155
44.4373
47.1208
49.7667
52.2356
54.3481
55.9033
56.7153
56.6582
55.7115
53.993
51.7688
49.4314
47.4443
46.2563
46.1991
47.3899
49.6658
52.5754
55.4462
57.5261
58.1779
57.0839
54.4004
50.8096
47.4279
45.5687
46.3984
50.563
57.8843
67.223
76.5715
83.388
85.1133
79.764
66.4569
45.731
19.573
-8.87836
-35.8924
-57.8492
-71.9253
-76.6072
-71.9204
-59.3342
-41.3782
-21.0778
-1.34647
15.5255
28.1827
36.2736
40.2965
41.294
40.4944
38.9962
37.5652
36.5706
36.0468
35.8327
35.7299
35.6259
35.5488
35.6492
36.1269
37.1385
38.7204
40.7557
42.9937
45.1139
46.8129
47.8853
48.2757
48.0862
47.5401
46.9142
46.4607
46.3402
46.5841
47.095
47.6818
48.12
48.2168
47.8678
47.0872
46.0077
44.8498
43.8684
43.2901
43.2537
43.7687
44.7001
45.7843
46.6759
47.0168
46.5164
45.0254
42.5866
39.4466
36.0202
32.81
30.2938
28.8067
28.4444
29.0191
30.0824
31.0166
31.1759
30.0426
27.3591
23.1981
17.9533
12.2507
6.80463
2.25808
-0.952493
-2.67309
-3.03489
-2.38962
-1.20184
0.0690437
1.06557
1.58722
1.59792
1.19466
0.554171
-0.123751
-0.662353
-0.937527
-0.891791
-0.537283
0.048037
0.729937
1.33537
1.68093
1.61262
1.05203
0.0381676
-1.24923
-2.49706
-3.30275
-3.24996
-2.00075
0.618186
4.55865
9.54072
15.0948
20.6477
25.633
29.5988
32.2874
33.6703
33.9313
33.4066
32.4987
31.5876
30.9591
30.7653
31.0217
31.636
32.4562
33.3226
34.1103
34.7529
35.2441
35.6221
35.9438
36.2591
36.5935
36.9434
37.2839
37.5854
37.8316
38.0325
38.2275
38.4766
38.8437
39.377
40.0936
40.9734
41.9646
42.9988
44.01
44.9505
45.7972
46.5453
47.1918
47.7133
48.0487
48.0946
47.7181
46.7891
45.2239
43.0295
40.3357
37.4014
34.5888
32.3047
30.9175
30.6683
31.5938
33.4854
35.8991
38.2247
39.8062
40.0962
38.8105
36.0459
32.325
28.5427
25.8085
25.2057
27.5093
32.9275
40.9327
50.2387
58.9533
64.8947
66.0219
60.8904
49.0324
31.1663
9.17334
-14.1715
-35.669
-52.2734
-61.6548
-62.6264
-55.3435
-41.2344
-22.6837
-2.54542
16.4047
31.9568
42.798
48.6294
50.0687
48.3813
45.1216
41.7706
39.4515
38.7706
39.7975
42.1656
45.2463
48.3468
50.8807
52.48
53.036
52.675
51.6877
50.4386
49.2787
48.4773
48.1848
48.4233
49.1041
50.0597
51.0849
51.9763
52.5657
52.7427
52.4656
51.7596
50.7057
49.423
48.0482
46.7175
45.5513
44.645
44.0637
43.8402
43.9722
44.4195
45.1004
45.8897
46.6231
47.1107
47.1604
46.6118
45.3729
43.453
40.9803
38.1985
35.4369
33.0567
31.3837
30.6398
30.8904
32.0205
33.7496
35.6824
37.3889
38.4946
38.762
38.1441
36.7958
35.041
33.3
31.9943
31.4497
31.8201
33.0483
34.8749
36.8931
38.6366
39.684
39.7539
38.7708
36.8863
34.4489
31.9291
29.8147
28.4999
28.1942
28.8719
30.2776
31.9858
33.5046
34.3967
34.3897
33.4472
31.7806
29.7977
27.9994
26.8508
26.6591
27.4918
29.1556
31.2438
33.2385
34.6414
35.0985
34.4857
32.935
30.7947
28.5362
26.6347
25.4528
25.1596
25.702
26.8324
28.1839
29.3696
30.0796
30.1517
29.6006
28.5991
27.4214
26.3633
25.6627
25.439
25.6664
26.1882
26.7644
27.1422
27.1274
26.6412
25.744
24.6229
23.544
22.7831
22.554
22.952
23.9292
25.3078
26.8263
28.2081
29.2324
29.7883
29.9
29.7155
29.4634
29.3908
29.6981
30.4876
31.7392
33.3172
35.006
36.5655
37.7907
38.5609
38.867
38.8082
38.5608
38.3248
38.2641
38.4569
38.8722
39.381
39.8047
39.9865
39.866
39.5312
39.2237
39.2877
40.0669
41.7765
44.3886
47.5746
50.7379
53.1445
54.1312
53.3388
50.8998
47.5134
44.361
42.8581
44.2874
49.3991
58.0875
69.2446
80.8543
90.3322
95.0503
92.9294
82.9588
65.5101
42.3598
16.4033
-8.8811
-30.0966
-44.5706
-50.832
-48.8215
-39.8031
-26.0122
-10.1407
5.21681
18.0292
27.1159
32.2161
33.8561
33.0768
31.1053
29.0552
27.7181
27.4736
28.3118
29.9373
31.9097
33.7793
35.1903
35.9389
35.9897
35.4608
34.5909
33.6957
33.1177
33.1714
34.0855
35.9505
38.6822
42.0169
45.5446
48.7827
51.2764
52.7023
52.9475
52.1403
50.6201
48.8532
47.3157
46.3769
46.2163
46.7952
47.89
49.1721
50.3086
51.0511
51.2884
51.0512
50.4733
49.7292
48.9705
48.2833
47.677
47.1018
46.4843
45.7625
44.9084
43.9308
42.8625
41.7431
40.6068
39.484
38.4159
