0.00244155
0.00208566
0.000511037
-0.00226905
-0.00562659
-0.00827012
-0.00850474
-0.00484082
0.00316381
0.0141203
0.0244961
0.0291628
0.0229708
0.00311448
-0.0284241
-0.0634184
-0.0880102
-0.0860127
-0.0446048
0.0390327
0.152544
0.267376
0.343844
0.342421
0.238911
0.0388409
-0.214762
-0.4453
-0.560378
-0.480897
-0.174048
0.320762
0.884335
1.33615
1.47933
1.1637
0.350395
-0.842161
-2.12926
-3.09772
-3.28758
-2.30081
0.0898811
3.86234
8.72083
14.1375
19.453
24.0119
27.3009
29.0531
29.2932
28.3147
26.5971
24.6891
23.0882
22.1481
22.031
22.71
24.0104
25.6711
27.4055
28.9489
30.0889
30.6838
30.6782
30.1237
29.2005
28.229
27.6528
27.9771
29.6603
32.9746
37.8735
43.9126
50.269
55.8804
59.6883
60.9304
59.3969
55.5582
50.4993
45.646
42.3399
41.3775
42.6636
45.1158
46.8935
45.9305
40.6452
30.6238
17.0505
2.70892
-8.51303
-12.534
-6.18853
11.7643
40.0341
74.8014
110.38
140.402
159.243
163.31
151.875
127.217
94.0522
58.4057
26.2331
2.14222
-11.4666
-14.6618
-9.62966
0.138885
10.8662
19.4262
23.9741
24.1479
20.8557
15.771
10.7202
7.14713
5.78704
6.6021
8.94764
11.879
14.4858
16.1539
16.6953
16.3353
15.589
15.0816
15.3746
16.8395
19.6034
23.562
28.4413
33.8811
39.516
45.0354
50.2173
54.9349
59.1454
62.8673
66.1583
69.0971
71.7752
74.2977
76.7899
79.4028
82.311
85.6951
89.7069
94.4209
99.7801
105.554
111.324
116.504
120.408
122.356
121.784
118.364
112.076
103.233
92.4506
80.5522
68.4501
57.0122
46.9469
38.7237
32.5401
28.3333
25.8255
24.5917
24.1334
23.9491
23.5962
22.7391
21.184
18.8971
16.0036
12.7647
9.53235
6.68557
4.55821
3.37173
3.18791
3.89357
5.22239
6.80997
8.27001
9.27376
9.61453
9.24295
8.26656
6.9163
5.4899
4.28678
3.54896
3.41964
3.92555
4.98342
6.42632
8.04245
9.61794
10.9756
12.0025
12.6624
12.9904
13.0722
13.0119
12.8981
12.7765
12.6386
12.4305
12.0808
11.5406
10.8212
10.0174
9.30381
8.90328
9.0318
9.83616
11.3427
13.4351
15.8703
18.3319
20.5074
22.1678
23.2276
23.7655
24.0014
24.2334
24.7535
25.7668
27.336
29.3695
31.6562
33.9386
36.0028
37.7583
39.2822
40.8082
42.6576
45.1265
48.3578
52.2392
56.3662
60.0963
62.6965
63.5547
62.3991
59.4511
55.4483
51.4974
48.7732
48.1292
49.7363
52.8754
55.9892
57.0302
54.052
45.901
32.8073
16.6693
0.890528
-10.2583
-12.6375
-3.35854
18.2738
50.2808
88.1661
125.721
156.311
174.333
176.48
162.481
135.133
99.6216
62.3051
29.2952
5.17806
-7.81006
-9.98938
-3.82824
6.91829
18.26
26.9295
31.021
30.1945
25.4603
18.6652
11.8625
6.74818
4.29833
4.66567
7.31206
11.2955
15.6029
19.43
22.3418
24.2958
25.5512
26.514
27.5772
29.0039
30.8791
33.1315
35.605
38.1486
40.6919
43.2823
46.0756
49.2834
53.0973
57.6134
62.7816
68.395
74.1264
79.6011
84.4894
88.5905
91.8846
94.5351
96.8367
99.1198
101.636
104.456
107.409
110.088
111.916
112.276
110.652
106.758
100.622
92.5909
83.2575
73.3399
63.5314
54.3717
46.1682
38.9869
32.7087
27.1276
22.0577
17.4123
13.2346
9.67088
6.90262
5.06195
4.16298
4.0724
4.52967
5.20923
5.80376
6.1013
6.03193
5.67126
5.20206
4.84868
4.80623
5.18607
5.99192
7.12969
8.44327
9.76145
10.9398
11.8859
12.5632
12.9776
13.1561
13.1266
12.908
12.5108
11.947
11.241
10.4356
9.58914
8.7645
8.01417
7.36943
6.8384
6.41545
6.09867
5.90789
5.89433
6.13481
6.70884
7.66387
8.97976
10.5464
12.1654
13.5819
14.5399
14.8485
14.4396
13.3968
11.9446
10.3973
9.07852
8.23563
7.97292
8.2256
8.7835
9.35847
9.67569
9.56061
8.9942
8.11842
7.18953
6.49343
6.24946
6.53353
7.24523
8.1302
8.8515
9.08815
8.63078
7.44547
5.68742
3.66276
1.75307
0.328811
-0.320263
-0.0177656
1.30836
3.66418
7.03296
11.3962
16.7153
22.875
29.6109
36.4587
42.7637
47.7752
50.8185
51.5056
49.915
46.6653
42.8282
39.6704
38.2728
39.1344
41.8917
45.276
47.3717
46.152
40.1671
29.1932
14.6265
-0.544831
-12.2519
-16.2597
-9.27599
10.0387
40.4529
78.1446
117.333
151.442
174.509
182.501
174.194
151.395
118.463
81.2702
45.8715
17.2375
-1.65843
-10.1989
-9.90011
-3.7279
4.82073
12.6107
17.5181
18.7131
16.5682
12.285
7.39019
3.25951
0.788319
0.263968
1.4276
3.66356
6.234
8.48424
9.97236
10.5109
10.137
9.04388
7.50406
5.80896
4.23116
3.00646
2.32638
2.33286
3.11213
4.69015
7.03491
10.0695
13.6952
17.8197
22.3802
27.3529
32.7451
38.5701
44.8138
51.4049
58.1993
64.9865
71.5158
77.5365
82.8383
87.2799
90.7979
93.3915
95.0924
95.9286
95.8957
94.9458
92.9987
89.9704
85.8104
80.5351
74.2478
67.1377
59.4613
51.511
43.5817
35.945
28.8351
22.4467
16.9393
12.4416
9.04723
6.80182
5.68263
5.57924
6.28476
7.50565
8.89328
10.0938
10.8067
10.8385
10.1385
8.80659
7.07048
5.23717
3.62862
2.51646
2.06967
2.32575
3.1906
4.46543
5.89343
7.21536
8.22162
8.79023
8.90356
8.642
8.15739
7.63394
7.24605
7.12281
7.32636
7.84726
8.61569
9.52331
10.4487
11.28
11.9292
12.339
12.4818
12.3565
11.9854
11.4143
10.7149
9.9858
9.35022
8.94593
8.90798
9.34606
10.321
11.8258
13.7759
16.0116
18.3116
20.4184
22.0693
23.0322
23.1404
22.3236
20.6294
18.2306
15.414
12.5471
10.0241
8.19889
7.3165
7.45934
8.52345
10.2351
12.2083
14.0334
15.3756
16.0581
16.1072
15.7439
15.3215
15.2255
15.7612
17.0613
19.0408
21.413
23.7645
25.6696
26.8112
27.076
26.5939
25.71
24.8953
24.619
25.2189
26.8051
29.2274
32.1164
34.9918
37.4078
39.0944
40.0537
40.5757
41.1621
42.3739
44.6409
48.091
52.4571
57.103
61.1768
63.8593
64.6383
63.5189
61.0866
58.3768
56.5614
56.5295
58.4899
61.7376
64.6987
65.2929
61.5537
52.3515
38.0033
20.5547
3.59083
-8.44391
-11.2877
-2.01373
20.0195
52.7053
91.383
129.686
160.865
179.256
181.536
167.438
139.745
103.594
65.2632
30.7751
4.66904
-10.7773
-15.7241
-12.3637
-4.10014
5.42894
13.2246
17.4906
17.7973
14.8749
10.157
5.24216
1.43225
-0.545812
-0.600088
0.852064
3.11773
5.47998
7.39311
8.58129
9.0385
8.95642
8.62118
8.31733
8.26462
8.59576
9.36824
10.5953
12.2792
14.4351
17.0982
20.3169
24.134
28.5643
33.5754
39.0752
44.913
50.8934
56.8028
62.4439
67.6704
72.414
76.6933
80.6012
84.2695
87.8185
91.3027
94.6697
97.7425
100.235
101.798
102.088
100.84
97.925
93.3844
87.4256
80.3847
72.6675
64.6829
56.7871
49.2492
42.2448
35.8716
30.1799
25.2021
20.9727
17.5305
14.9048
13.0926
12.0362
11.6134
11.645
11.9215
12.2427
12.4595
12.5062
12.4127
12.2929
12.3105
12.6305
13.3685
14.5521
16.1025
17.8447
19.5411
20.9443
21.854
22.166
21.9003
21.2026
20.3155
19.528
19.1125
19.2642
20.0557
21.4186
23.1546
24.9745
26.5555
27.6044
27.9112
27.3833
26.0534
24.0615
21.6181
18.9595
16.306
13.8337
11.6625
9.86159
8.46454
7.48746
6.94146
6.83472
7.16361
7.89669
8.95832
10.2197
11.5028
12.6001
13.3071
13.462
12.9841
11.9007
10.356
8.59734
6.93891
5.70831
5.18447
5.53901
6.79334
8.80251
11.2721
13.8084
15.9945
17.4776
18.0487
17.6945
16.6069
15.1433
13.7455
12.8325
12.6965
13.4277
14.8904
16.7606
18.6161
20.0567
20.8222
20.8731
20.4087
19.8158
19.5568
20.0312
21.447
23.7444
26.5977
29.5004
31.9145
33.4424
33.9706
33.7349
33.2803
33.3142
34.4875
37.1657
41.2612
46.1896
50.9816
54.5342
55.9381
54.7845
51.3459
46.5543
41.7546
38.2869
37.0127
37.941
40.0969
41.7162
40.7518
35.575
25.6671
12.0782
-2.53279
-14.3508
-19.2803
-14.0392
2.82526
30.2952
64.8306
100.966
132.439
153.568
160.542
152.271
130.598
99.8067
65.5934
33.755
8.95556
-6.14145
-11.1875
-7.88942
0.695442
11.0779
20.21
26.0985
28.0471
26.5276
22.7827
18.3174
14.4359
11.9397
11.035
11.4268
12.5322
13.7238
14.5277
14.7301
14.3856
13.7477
13.1627
12.964
13.3957
14.5772
16.5042
19.0756
22.131
25.4869
28.9674
32.4249
35.7549
38.9045
41.8746
44.717
47.5239
50.4125
53.5046
56.9068
60.6926
64.8902
69.4769
74.3765
79.4614
84.5538
89.4285
93.8177
97.4196
99.9155
100.996
100.398
97.9389
93.563
87.3638
79.5977
70.6719
61.1081
51.4851
42.3686
34.2387
27.428
22.0829
18.1545
15.4222
13.5457
12.1354
10.8274
9.34782
7.55486
5.45106
3.16611
0.916042
-1.04992
-2.50287
-3.27725
-3.29718
-2.5844
-1.2504
0.522573
2.50706
4.4594
6.15075
7.39909
8.09989
8.25083
7.96348
7.45456
7.01217
6.93869
7.47952
8.75426
10.7096
13.1113
15.5828
17.6862
19.028
19.3619
18.66
17.1311
15.1763
13.2937
11.9537
11.4802
11.9702
13.2714
15.0266
16.7713
18.0568
18.5685
18.2062
17.108
15.6125
14.1723
13.2396
13.1548
14.0646
15.8858
18.3244
20.9403
23.242
24.7886
25.2766
24.5934
22.8293
20.2478
17.2265
14.182
11.497
9.46437
8.25444
7.90877
8.35377
9.42662
10.9051
12.5355
14.0573
15.2254
15.8322
15.7312
14.8586
13.2492
11.0389
8.4501
5.75942
3.25179
1.17174
-0.317519
-1.15709
-1.39288
-1.15507
-0.623618
0.0103708
0.578243
0.956752
1.07916
0.936845
0.574768
0.0831189
-0.415296
-0.783904
-0.898979
-0.682252
-0.132867
0.652024
1.4795
2.0933
2.23518
1.72351
0.528752
-1.17743
-3.01803
-4.45872
-4.9002
-3.7939
-0.753202
4.36578
11.4303
20.0464
29.6137
39.4039
48.6467
56.6155
62.709
66.5316
67.9676
67.2341
64.8894
61.7678
58.8256
56.9095
56.4913
57.4478
58.9721
59.687
57.9785
52.4968
42.7016
29.286
14.3142
0.973325
-7.05988
-6.51455
4.53789
25.9696
55.3329
88.1688
118.854
141.798
152.701
149.535
133.006
106.363
74.6161
43.367
17.5684
0.513724
-6.70089
-5.14901
2.45834
12.624
21.9846
28.0604
29.6718
26.9692
21.1342
13.8872
6.96432
1.70507
-1.16741
-1.56067
0.129989
3.2418
7.06032
10.9734
14.5418
17.5
19.7176
21.159
21.8636
21.949
21.6275
21.2111
21.0911
21.6828
23.3473
26.3097
30.5994
36.0328
42.2444
48.7609
55.0962
60.8459
65.7559
69.7526
72.9338
75.5262
77.8263
80.1382
82.7199
85.7442
89.2741
93.2503
97.4903
101.697
105.479
108.393
109.99
109.879
107.794
103.644
97.5404
89.7964
80.8909
71.405
61.9427
53.0529
45.163
38.5393
33.2754
29.3092
26.4622
24.4913
23.1425
22.1969
21.5015
20.978
20.6126
20.4268
20.4399
20.632
20.9204
21.1567
21.1487
20.7045
19.6853
18.0555
15.9115
13.4793
11.078
9.05579
7.71425
7.24034
7.66542
8.86197
10.5796
12.5097
14.3617
15.929
17.1276
17.9991
18.6786
19.3403
20.1356
21.1452
22.354
23.6572
24.8918
25.882
26.4863
26.6303
26.3197
25.6303
24.6807
23.5975
22.4829
21.3939
20.3373
19.2809
18.1761
16.9834
15.6967
14.3568
13.0528
11.912
11.0778
10.684
10.8268
11.5429
12.7952
14.4716
16.3948
18.3457
20.0947
21.438
22.2325
22.4231
22.0573
21.2827
20.3266
19.46
18.952
19.021
19.7926
21.2729
23.3415
25.7666
28.2412
30.432
32.0352
32.8268
32.7011
31.6905
29.964
27.8051
25.5729
23.6517
22.3955
22.075
22.8324
24.6529
27.3558
30.6109
33.9792
36.9752
39.1413
40.1225
39.7265
37.9567
35.0093
31.2351
27.0727
22.9688
19.3028
16.3325
14.1694
12.7868
12.0517
11.7704
11.7319
11.7419
11.643
11.3229
10.7184
9.81944
8.67523
7.39933
6.16666
5.19603
4.71665
4.92416
5.93894
7.78134
10.3751
13.5799
17.2426
21.246
25.5327
30.0904
34.8995
39.8635
44.7565
49.2197
52.8261
55.205
56.1867
55.9103
54.8357
53.6287
52.9323
53.0866
53.8979
54.5606
53.8039
50.2638
43.001
32.0146
18.5718
5.2043
-4.69666
-7.63221
-0.925584
16.4199
43.1916
75.9536
109.602
138.385
157.145
162.467
153.441
131.837
101.653
68.171
36.769
11.8014
-4.18309
-10.7243
-9.21704
-2.28307
7.03801
16.047
22.9052
26.8248
27.9445
26.9933
24.8855
22.3856
19.9285
17.6141
15.3355
12.9578
10.4673
8.03275
5.9654
4.6058
4.18943
4.74827
6.08613
7.83545
9.57291
10.9513
11.8022
12.1769
12.3161
12.5641
13.2599
14.6415
16.7943
19.6542
23.059
26.8248
30.8194
35.0068
39.4499
44.2727
49.598
55.481
61.861
68.5452
75.2272
81.5323
87.0749
91.5121
94.5804
96.1109
96.0258
94.3257
91.075
86.3964
80.4721
73.5513
65.9518
58.0498
50.2507
42.9432
36.4461
30.9597
26.5387
23.0946
20.4318
18.3068
16.4968
14.8556
13.3415
12.0072
10.9566
10.2835
10.0144
10.0773
10.3105
10.5129
10.5183
10.2719
9.87664
9.59098
9.76916
10.7569
12.7704
15.7961
19.5445
23.4784
26.9146
29.1766
29.7572
28.4489
25.4043
21.1106
16.2825
11.704
8.05982
5.80003
5.06939
5.71455
7.35925
9.52078
11.7322
13.6382
15.043
15.9078
16.3082
16.3746
16.2383
16
15.726
15.465
15.271
15.2163
15.3841
15.8406
16.5959
17.5706
18.5854
19.3816
19.6758
19.2322
17.9351
15.8385
13.1745
10.3169
7.70665
5.75762
4.76734
4.85561
5.94507
7.78656
10.02
12.2535
14.1397
15.4337
16.0217
15.921
15.2559
14.2223
13.0488
11.9629
11.1641
10.8053
10.9775
11.7
12.9147
14.4885
16.226
17.8941
19.2573
20.1163
20.3446
19.9118
18.891
17.4458
15.8024
14.2126
12.9158
12.1073
11.9173
12.4013
13.5396
15.2435
17.3654
19.7124
22.0636
24.1936
25.8998
27.0338
27.5289
27.4197
26.846
26.0376
25.2809
24.8713
25.0607
26.0082
27.7457
30.1641
33.0244
35.9957
38.7149
40.8607
42.2312
42.8066
42.7807
42.5463
42.624
43.5421
45.6891
49.1744
53.7424
58.7782
63.4221
66.7792
68.1735
67.3716
64.6949
60.9613
57.2489
54.5306
53.2887
53.2435
53.3154
51.8821
47.2969
38.5415
25.8157
10.8532
-3.19297
-12.3339
-12.6981
-1.62232
21.4211
54.3472
92.615
130.032
160.041
177.175
178.308
163.37
135.346
99.5514
62.3863
29.9004
6.53123
-5.67862
-7.22621
-0.679367
10.2245
21.6323
30.4936
35.1258
35.3333
32.1233
27.1646
22.1843
18.4816
16.6716
16.6843
17.9654
19.7714
21.451
22.6264
23.2423
23.4996
23.7223
24.222
25.2033
26.7345
28.7732
31.2213
33.9774
36.9659
40.1366
43.4463
46.8398
50.2471
53.6028
56.879
60.1163
63.4324
66.9991
70.989
75.5087
80.5423
85.9292
91.3883
96.5835
101.213
105.088
108.182
110.614
112.587
114.293
115.805
117.012
117.611
117.153
115.16
111.246
105.239
97.2527
87.6849
77.1624
66.4287
56.2142
47.118
39.5263
33.5811
29.198
26.1214
23.9992
22.4568
21.1595
19.8536
18.3865
16.7093
14.8675
12.9822
11.2259
9.79345
8.8696
8.59507
9.03602
10.1621
11.8388
13.8383
15.8697
17.6249
18.834
19.3183
19.0313
18.0764
16.6958
15.2301
14.0536
13.4983
13.7813
14.9529
16.8781
19.2591
21.6947
23.7661
25.129
25.5896
25.147
23.989
22.4433
20.8961
19.698
19.0837
19.1238
19.7215
20.653
21.6381
22.4202
22.8342
22.8429
22.536
22.0932
21.7264
21.6181
21.8731
22.4965
23.399
24.4254
25.3952
26.1415
26.5412
26.5293
26.1014
25.3064
24.2366
23.018
21.8005
20.7458
20.0099
19.7178
19.935
20.6412
21.7157
22.9433
24.044
24.7245
24.7403
23.9549
22.3797
20.183
17.664
15.1959
13.1519
11.8311
11.4014
11.8723
13.1026
14.8385
16.7722
18.6043
20.0973
21.107
21.5895
21.5825
21.1729
20.4584
19.5172
18.3924
17.0973
15.6362
14.0354
12.3706
10.7822
9.46796
8.65327
8.54354
9.27105
10.8505
13.1569
15.9332
18.8279
21.4538
23.4539
24.5607
24.637
23.6943
21.8916
19.5195
16.9766
14.7375
13.3106
13.1769
14.7088
18.0763
23.1595
29.5011
36.3296
42.6726
47.5559
50.2459
50.4715
48.5448
45.3209
41.9768
39.6508
39.0391
40.084
41.8776
42.8565
41.2722
35.8267
26.2869
13.8667
1.21168
-8.07506
-10.2909
-2.66711
15.7067
43.3497
76.4405
109.49
136.498
152.302
153.787
140.611
115.28
82.5331
48.226
17.9986
-3.92118
-15.4894
-17.0326
-10.8547
-0.422085
10.6188
19.3212
24.0047
24.4071
21.4497
16.7393
11.9875
8.51823
6.9821
7.3166
8.9157
10.9184
12.5099
13.1464
12.6553
11.2086
9.20784
7.13321
5.41254
4.34252
4.07187
4.63235
5.99107
8.09695
10.9042
14.37
18.4351
23.0053
27.9463
33.0988
38.3098
43.4676
48.5248
53.4993
58.4524
63.4506
68.5289
73.6695
78.8055
83.8477
88.7206
93.3899
97.8617
102.148
106.204
109.858
112.767
114.418
114.192
111.49
105.881
97.2507
85.8874
72.4923
58.0931
43.8815
31.0102
20.397
12.5822
7.66848
5.35248
5.03142
5.95445
7.37914
8.69901
9.51979
9.6782
9.21149
8.29533
7.17093
6.07886
5.21129
4.68683
4.54635
4.76473
5.27224
5.97939
6.8004
7.67134
8.5605
9.46941
10.4252
11.4662
12.625
13.9127
15.31
16.7659
18.2058
19.5467
20.7131
21.6529
22.3449
22.8002
23.0542
23.1537
23.1425
23.0482
22.8753
22.6049
22.202
21.6282
20.8566
19.886
18.7481
17.5091
16.2608
15.1065
14.1431
13.4449
13.054
12.9784
13.1986
13.6797
14.384
15.2788
16.3373
17.5324
18.8255
20.1564
21.4395
22.5699
23.4388
23.9553
24.0677
23.7784
23.1463
22.2753
21.2932
20.3254
19.4722
18.7963
18.3223
18.0485
17.9639
18.0649
18.3629
18.8786
19.6262
20.5898
21.7038
22.8451
23.8445
24.5171
24.7075
24.335
23.4276
22.1292
20.6763
19.3457
18.3862
17.954
18.0696
18.6127
19.357
20.0369
20.4258
20.4023
19.9813
19.3011
18.5697
17.989
17.686
17.6762
17.8773
18.1707
18.489
18.8954
19.6161
21.0022
23.4194
27.092
31.9544
37.5677
43.1494
47.7292
50.4024
50.6077
48.3363
44.1849
39.2066
34.5791
31.179
29.201
27.9717
26.0635
21.729
13.5646
1.21686
-14.1034
-29.5111
-40.8575
-43.625
-34.1168
-10.6302
25.7294
70.8697
118.287
160.311
189.731
201.417
193.491
167.769
129.323
85.3075
43.3329
9.81878
-11.2693
-19.0101
-15.3494
-4.26521
9.44975
21.4414
28.761
30.3365
26.8941
20.431
13.4462
8.17116
6.009
7.29904
11.4182
17.1334
23.0619
28.0902
31.6354
33.6985
34.727
35.361
36.1584
37.3948
38.9946
40.6055
41.7779
42.1797
41.7657
40.8388
39.9763
39.8396
40.9292
43.3632
46.761
50.2758
52.7808
53.1598
50.6202
44.9355
36.5427
26.4636
16.0717
6.76953
-0.330854
-4.63768
-6.1629
-5.44798
-3.36689
-0.872761
1.23675
2.47519
2.71493
2.13306
1.08994
-0.0122074
-0.84756
-1.23485
-1.14987
-0.694507
-0.0434794
0.610295
1.09831
1.303
1.17105
0.718572
0.0308912
-0.744148
-1.41321
-1.76771
-1.62559
-0.876783
0.480229
2.32433
4.42871
6.50884
8.29104
9.58337
10.3282
10.6198
10.6807
10.8017
11.2627
12.2568
13.8378
15.9065
18.2367
20.5325
22.5001
23.9127
24.6545
24.7332
24.2642
23.4339
22.455
21.5264
20.8049
20.3916
20.3299
20.611
21.182
21.9537
22.8092
23.6158
24.2397
24.5663
24.5204
24.0823
23.2948
22.2557
21.0992
19.9668
18.9783
18.2092
17.681
17.3661
17.2061
17.1358
17.1057
17.0959
17.117
17.1995
17.3747
17.6542
18.0161
18.4007
18.7197
18.8744
18.779
18.381
17.6743
16.6998
15.5348
14.2751
13.0147
11.8305
10.776
9.88499
9.18279
8.69865
8.47264
8.55173
8.9736
9.74218
10.803
12.0289
13.2252
14.1578
14.6019
14.3997
13.5118
12.0447
10.244
8.44868
7.01462
6.22691
6.22399
6.95795
8.20652
9.63877
10.9202
11.8286
12.3454
12.688
13.2655
14.5584
16.9513
20.5663
25.1539
30.088
34.4864
37.4377
38.2778
36.8277
33.5061
29.2547
25.2674
22.5859
21.6769
22.1404
22.677
21.3797
16.3149
6.25335
-8.6615
-26.5415
-43.8503
-56.022
-58.5024
-47.9676
-23.3946
13.3361
57.5209
102.436
140.703
165.886
173.929
164.049
138.863
103.717
65.4094
30.6396
4.58471
-10.0476
-13.2952
-7.53791
3.41318
15.443
25.1609
30.577
31.3029
28.299
23.3124
18.2158
14.4495
12.7064
12.906
14.4072
16.3489
17.9874
18.9254
19.1794
19.0955
19.1675
19.837
21.3432
23.664
26.5524
29.6388
32.5563
35.0434
36.9977
38.4731
39.6348
40.6967
41.8658
43.3085
45.1434
47.4513
50.2883
53.6912
57.6674
62.1751
67.1014
72.2534
77.3691
82.1518
86.3195
89.6569
92.0522
93.5057
94.1044
93.967
93.1729
91.6989
89.3826
85.9334
80.9948
74.2511
65.5555
55.0476
43.2239
30.935
19.2943
9.50842
2.65861
-0.519969
0.190669
4.41479
11.2257
19.3051
27.1871
33.5351
37.388
38.3222
36.494
32.5579
27.4844
22.3258
17.9864
15.0496
13.6976
13.7324
14.6836
15.9687
17.0596
17.6172
17.561
17.0657
16.4897
16.2605
16.7485
18.16
20.4755
23.4466
26.6486
29.5756
31.7531
32.8422
32.7108
31.4563
29.3769
26.9006
24.4895
22.5443
21.3299
20.9378
21.2898
22.1779
23.3247
24.4473
25.3098
25.7526
25.7004
25.1515
24.1603
22.8208
21.2564
19.6141
18.0586
16.759
15.8641
15.4697
15.5845
16.1099
16.8429
17.5112
17.8338
17.5952
16.7105
15.2614
13.4866
11.7251
10.3253
9.54459
9.46838
9.97569
10.7637
11.4278
11.5759
10.9445
9.48306
7.38016
5.0219
2.89385
1.4532
1.00835
1.64129
3.19622
5.33795
7.66255
9.82546
11.6454
13.1487
14.5356
16.0773
17.9759
20.2372
22.6066
24.6037
25.6566
25.3008
23.3776
20.153
16.2949
12.6859
10.1103
8.90556
8.70412
8.38542
6.30551
0.788626
-9.23162
-23.6076
-40.6206
-57.0381
-68.6511
-71.2118
-61.5605
-38.6422
-4.11016
37.6971
80.4617
117.142
141.482
149.404
139.916
115.308
80.5901
42.3139
7.10571
-19.7308
-35.1961
-38.9563
-33.052
-21.0926
-7.1959
5.0341
13.2417
16.6263
15.8126
12.3909
8.30446
5.26824
4.36418
5.88248
9.39979
14.0245
18.7099
22.5407
24.9271
25.6796
24.9772
23.2625
21.1078
19.0891
17.6924
17.261
17.9805
19.891
22.9176
26.9061
31.6606
36.9745
42.6554
48.5395
54.4958
60.4213
66.231
71.8462
77.1871
82.1725
86.7287
90.8035
94.3813
97.4919
100.207
102.623
104.827
106.857
108.665
110.093
110.867
110.626
108.971
105.538
100.078
92.5206
83.0202
71.9637
59.9381
47.6632
35.9016
25.3603
16.6039
9.99185
5.65046
3.47937
3.18873
4.35659
6.49534
9.11658
11.7868
14.1691
16.0494
17.3459
18.1024
18.4646
18.643
18.8631
19.313
20.0955
21.1981
22.4885
23.7403
24.6866
25.0893
24.8077
23.8476
22.377
20.7002
19.1962
18.2342
18.0887
18.8739
20.5157
22.7662
25.2571
27.5767
29.3529
30.321
30.3648
29.5243
27.9742
25.9823
23.8599
21.9149
20.4138
19.5549
19.4518
20.1237
21.4912
23.38
25.533
27.636
29.3574
30.3985
30.5477
29.7253
28.0085
25.6265
22.9226
20.2882
18.0835
16.5602
15.8063
15.7266
16.0639
16.4578
16.5252
15.9461
14.5329
12.2692
9.3103
5.94981
2.56198
-0.463998
-2.78293
-4.13541
-4.36946
-3.44551
-1.43237
1.49913
5.08228
8.96465
12.7312
15.9498
18.2422
19.3725
19.3327
18.3935
17.0935
16.1462
16.2747
18.0054
21.4808
26.3539
31.8168
36.7765
40.1442
41.1594
39.6399
36.0626
31.4218
26.8822
23.3261
20.9451
19.0387
16.1342
10.4468
0.578754
-13.7443
-31.1502
-48.5316
-61.5024
-65.3516
-56.2828
-32.6081
4.45425
50.6521
99.3418
142.788
173.82
187.419
181.846
158.984
123.851
83.3888
44.8663
14.3157
-4.62592
-11.2091
-7.34046
3.24233
16.114
27.3008
34.1297
35.6186
32.381
26.1508
19.115
13.2616
9.907
9.49159
11.6412
15.4253
19.703
23.4516
25.9964
27.1087
26.9755
26.0775
25.024
24.3917
24.6009
25.8493
28.1043
31.1454
34.6403
38.2334
41.6275
44.6408
47.2302
49.4786
51.5534
53.6505
55.9419
58.5405
61.4919
64.7901
68.4068
72.3187
76.5177
80.9971
85.7162
90.5559
95.2836
99.5463
102.898
104.865
105.027
103.1
98.9955
92.842
84.9583
75.798
65.8737
55.6847
45.6656
36.162
27.4323
19.6658
13.0023
7.5443
3.35521
0.4469
-1.23516
-1.8198
-1.50381
-0.529933
0.846635
2.39441
3.93514
5.35952
6.62678
7.75017
8.77396
9.74837
10.7078
11.6557
12.5573
13.3416
13.911
14.1615
14.009
13.4219
12.4492
11.2374
10.0247
9.10766
8.78132
9.26352
10.6236
12.7373
15.2869
17.8144
19.8206
20.8865
20.7848
19.548
17.4712
15.0436
12.8269
11.3141
10.8073
11.3517
12.7428
14.6031
16.5024
18.0849
19.1618
19.7455
20.0163
20.2378
20.651
21.3844
22.4081
23.5459
24.5381
25.1319
25.1688
24.6378
23.6815
22.5519
21.5356
20.8712
20.6869
20.9751
21.6084
22.3869
23.0983
23.5705
23.701
23.4608
22.8781
22.0145
20.9493
19.7761
18.6118
17.6066
16.9396
16.7931
17.3036
18.5058
20.2915
22.409
24.5154
26.2794
27.5059
28.2391
28.8
29.726
31.613
34.8964
39.6393
45.406
51.2849
56.0797
58.635
58.203
54.7316
48.9608
42.2642
36.2543
32.2538
30.8014
31.3694
32.4247
31.8655
27.7386
19.0352
6.30923
-8.11595
-20.4801
-26.4298
-22.1795
-5.68018
22.5506
59.2064
98.6927
134.262
159.511
169.851
163.576
142.234
110.219
73.7
39.1793
12.0583
-4.42991
-9.68282
-5.52255
4.56114
16.469
26.5499
32.391
33.1783
29.5995
23.3858
16.6703
11.3588
8.67496
8.96557
11.7671
16.0671
20.6537
24.4483
26.7389
27.2801
26.2625
24.1907
21.7172
19.4832
17.9969
17.5664
18.2866
20.0682
22.6936
25.8831
29.3599
32.9044
36.391
39.8043
43.2327
46.841
50.8254
55.3602
60.546
66.3706
72.6924
79.2513
85.705
91.6835
96.85
100.953
103.856
105.544
106.1
105.661
104.372
102.343
99.6223
96.1985
92.0165
87.0139
81.1584
74.4801
67.0902
59.1822
51.0171
42.8978
35.1351
28.0152
21.7686
16.5475
12.4132
9.33516
7.20385
5.85614
5.1091
4.79549
4.79195
5.03133
5.49417
6.1804
7.06969
8.08422
9.0695
9.80485
10.0467
9.59586
8.37097
6.4624
4.14615
1.84472
0.0386959
-0.851193
-0.580158
0.841127
3.13039
5.79121
8.2331
9.92372
10.5318
10.0199
8.65835
6.95541
5.52051
4.89857
5.42142
7.11767
9.70576
12.6707
15.4016
17.351
18.1703
17.7877
16.409
14.4466
12.4018
10.7356
9.7636
9.60213
10.172
11.253
12.5657
13.8538
14.9437
15.7679
16.3528
16.7815
17.1483
17.5229
17.932
18.3632
18.7824
19.1569
19.4712
19.7317
19.9576
20.1649
20.3515
20.4909
20.5387
20.4517
20.2108
19.8415
19.4204
19.0644
18.9035
19.0455
19.5446
20.3877
21.5051
22.8076
24.2377
25.8165
27.6632
29.9716
32.9374
36.6529
40.9997
45.5842
49.7523
52.7042
53.6951
52.273
48.4782
42.927
36.7205
31.1756
27.4316
26.0464
26.7178
28.2532
28.8465
26.6241
20.3291
9.93865
-2.99984
-15.4709
-23.5724
-23.47
-12.493
9.93582
41.8214
78.7506
114.692
143.271
159.205
159.53
144.294
116.533
81.5389
45.622
14.6867
-7.00619
-17.5988
-17.763
-10.2168
1.18852
12.5364
20.7813
24.3353
23.2033
18.6985
12.8731
7.85336
5.26592
5.88515
9.55654
15.3688
21.9904
28.0597
32.5241
34.8552
35.1086
33.8386
31.908
30.2512
29.6494
30.5655
33.0697
36.8634
41.3868
45.9813
50.0625
53.2638
55.516
57.0461
58.2998
59.8118
62.0601
65.3433
69.7145
74.9838
80.7853
86.6845
92.2934
97.3586
101.801
105.694
109.2
112.475
115.574
118.388
120.628
121.848
121.525
119.159
114.373
107.01
97.1902
85.3245
72.0853
58.3322
45.0054
33.002
23.054
15.6269
10.859
8.55139
8.21442
9.16318
10.6465
11.984
12.6849
12.5222
11.5479
10.0463
8.43649
7.1488
6.50576
6.63677
7.44724
8.64822
9.83691
10.6048
10.6439
9.82202
8.21028
6.05599
3.71339
1.55266
-0.126762
-1.15639
-1.51986
-1.33447
-0.803462
-0.155776
0.409248
0.759468
0.844344
0.688118
0.368738
-0.00899514
-0.339096
-0.535057
-0.544523
-0.358387
-0.0143431
0.406254
0.790201
1.01404
0.973924
0.618385
-0.0243867
-0.834238
-1.60868
-2.09591
-2.04555
-1.26531
0.331638
2.70181
5.67675
8.99731
12.3671
15.5097
18.2145
20.3584
21.9021
22.8649
23.2922
23.2273
22.7006
21.7377
20.3828
18.724
16.9093
15.141
13.6465
12.6322
12.2323
12.4708
13.2483
14.3613
15.5493
16.5574
17.1975
17.3893
17.1716
16.6799
16.0974
15.5948
15.2743
15.1345
15.0662
14.8803
14.3643
13.3526
11.7975
9.81982
7.72465
5.97007
5.08594
5.55226
7.65971
11.3866
16.3316
21.7351
26.6054
29.9357
30.965
29.4134
25.6099
20.4534
15.1868
11.0257
8.73991
8.32126
8.86864
8.77065
6.18087
-0.319415
-11.0571
-24.8207
-38.8159
-49.1073
-51.4916
-42.6054
-20.9772
12.2846
53.3987
96.4934
134.761
161.915
173.581
168.276
147.706
116.329
80.2878
46.0098
18.8264
1.94932
-3.97081
-0.648749
8.55823
19.6641
29.0745
34.3606
34.6311
30.4685
23.5174
15.8828
9.52532
5.80375
5.25272
7.60617
12.0115
17.3422
22.5118
26.7115
29.5327
30.9705
31.3366
31.1228
30.8587
30.9956
31.8359
33.5088
35.9867
39.1272
42.7247
46.5606
50.441
54.2196
57.8047
61.1538
64.2621
67.1492
69.8502
72.4121
74.8967
77.385
79.979
82.7942
85.9412
89.4949
93.4567
97.7176
102.034
106.027
109.205
111.029
110.988
108.69
103.951
96.8438
87.7152
77.1485
65.8815
54.6937
44.2856
35.176
27.6388
21.6926
17.1434
13.6666
10.9066
8.56795
6.47567
4.59296
2.99597
1.81796
1.18213
1.14412
1.6599
2.58601
3.70868
4.79079
5.62194
6.05845
6.04528
5.61828
4.89053
4.02924
3.22922
2.68662
2.57405
3.01668
4.07016
5.70281
7.78759
10.1095
12.3926
14.3446
15.714
16.3444
16.2143
15.4474
14.2905
13.059
12.0656
11.5473
11.6111
12.2117
13.1666
14.2041
15.0317
15.4066
15.192
14.3869
13.1232
11.6346
10.2052
9.11021
8.56094
8.66512
9.40803
10.657
12.1877
13.7261
15.0003
15.79
15.9679
15.521
14.5492
13.2405
11.8268
10.5314
9.52057
8.87147
8.56514
8.50608
8.56258
8.61579
8.6024
8.53796
8.51342
8.66596
9.1334
10.0065
11.2941
12.913
14.7035
16.4685
18.0216
19.2304
20.0438
20.4956
20.6864
20.7512
20.8238
21.0088
21.3676
21.9175
22.6436
23.5126
24.486
25.527
26.6026
27.6819
28.7346
29.7317
30.6479
31.4651
32.1758
32.7855
33.3168
33.8148
34.3549
35.047
36.0304
37.4482
39.4014
41.8847
44.7247
47.5473
49.8008
50.852
50.1465
47.3976
42.7415
36.7931
30.5521
25.152
21.5017
19.921
19.8992
20.0925
18.6183
13.6129
3.92268
-10.2728
-27.1212
-43.204
-54.1371
-55.5647
-44.3152
-19.4095
17.3786
61.604
106.907
146.286
173.581
184.791
178.9
157.993
126.663
90.882
56.637
28.6917
9.76709
0.298273
-1.23719
2.42065
8.21722
13.5897
16.9804
17.9722
17.0811
15.3324
13.7873
13.1716
13.6992
15.106
16.8418
18.327
19.1771
19.3265
19.0241
18.7231
18.9147
19.966
22.012
24.9287
28.3815
31.9282
35.1391
37.7022
39.4878
40.5661
41.1804
41.6893
42.4939
43.9659
46.3874
49.9093
54.5325
60.1121
66.3843
73.011
79.6365
85.9465
91.7169
96.8426
101.337
105.302
108.87
112.14
115.109
117.639
119.444
120.132
119.27
116.477
111.511
104.341
95.1819
84.4804
72.8665
61.0697
49.8213
39.7613
31.3645
24.8958
20.4009
17.7274
16.5708
16.5348
17.1954
18.1595
19.1092
19.8285
20.2104
20.2459
19.9996
19.5782
19.0991
18.6652
18.3496
18.1913
18.2001
18.366
18.6682
19.0813
19.5758
20.1161
20.6584
21.1523
21.5494
21.8157
21.9472
21.9802
21.9929
22.0926
22.3913
22.974
23.8687
25.0277
26.328
27.5933
28.633
29.2901
29.4832
29.2312
28.6524
27.9363
27.2955
26.9104
26.8832
27.2132
27.8022
28.4872
29.09
29.4702
29.5622
29.3885
29.0421
28.6475
28.3117
28.084
27.9371
27.7779
27.484
26.955
26.1592
25.1612
24.1163
23.2332
22.712
22.6777
23.1272
23.9097
24.7475
25.296
25.2295
24.3298
22.5567
20.0791
17.2568
14.5748
12.5426
11.5823
11.9295
13.5735
16.2499
19.4911
22.7244
25.3949
27.0859
27.6079
27.0334
25.6697
23.9765
22.4483
21.4927
21.3357
21.9769
23.2059
24.673
25.991
26.8412
27.0519
26.6303
25.7425
24.6515
23.6358
22.9145
22.603
22.7063
23.1499
23.8293
24.6574
25.591
26.6262
27.7694
28.998
30.235
31.3527
32.2109
32.7191
32.8964
32.9008
33.0059
33.5227
34.686
36.5467
38.9138
41.3813
43.4432
44.6681
44.8699
44.2027
43.1246
42.2152
41.8917
42.1178
42.2272
40.9657
36.7976
28.4326
15.4392
-1.24901
-19.1348
-34.3993
-42.604
-39.7249
-23.2738
6.80213
47.7222
94.1408
139.076
175.304
196.897
200.509
186.098
156.886
118.586
78.0923
41.9754
15.1544
0.0554231
-3.58263
1.73228
12.1442
23.5335
32.4977
37.0014
36.5855
32.1548
25.4704
18.5278
13.0035
9.89809
9.42872
11.1475
14.2047
17.6552
20.716
22.9196
24.147
24.5644
24.5066
24.3552
24.4464
25.0243
26.2371
28.158
30.812
34.19
38.2465
42.8819
47.9253
53.1286
58.1857
62.7775
66.6369
69.617
71.7433
73.2313
74.4589
75.895
77.9979
81.1069
85.3535
90.6171
96.535
102.566
108.092
112.527
115.411
116.464
115.589
112.839
108.354
102.311
94.8827
86.244
76.5967
66.2153
55.48
44.88
34.9754
26.3204
19.3671
14.3752
11.3556
10.0673
10.0696
10.8202
11.7906
12.571
12.938
12.8687
12.5036
12.0731
11.8106
11.8798
12.3344
13.1183
14.1013
15.134
16.1035
16.9699
17.774
18.6162
19.6147
20.8593
22.3741
24.1031
25.9176
27.6455
29.1071
30.1501
30.6711
30.6229
30.0091
28.8744
27.2971
25.3899
23.3072
21.2513
19.4696
18.2324
17.79
18.3138
19.837
22.2121
25.1038
28.0279
30.4316
31.8028
31.7813
30.2448
27.3451
23.4847
19.2379
15.2349
12.0376
10.0377
9.39727
10.0442
11.7149
14.0296
16.576
18.9814
20.9583
22.3209
22.9783
22.9164
22.1792
20.8591
19.0946
17.0704
15.0118
13.1642
11.758
10.963
10.8463
11.3457
12.2731
13.3499
14.2703
14.7753
14.7197
14.1101
13.103
11.9624
10.9868
10.4278
10.4228
10.9608
11.892
12.9756
13.9511
14.6121
14.8583
14.7139
14.3089
13.8302
13.4632
13.3387
13.5035
13.919
14.4852
15.0794
15.5972
15.9849
16.2571
16.5001
16.8623
17.5339
18.7157
20.5753
23.1928
26.5024
30.2471
33.9695
37.0602
38.8733
38.8956
36.9305
33.2339
28.5403
23.9346
20.5719
19.301
20.3014
22.8623
25.4185
25.8905
22.2862
13.421
-0.453365
-17.3319
-33.6103
-44.7477
-46.3231
-35.2355
-10.7248
25.0965
67.3968
109.482
144.179
165.414
169.585
156.369
128.759
92.3303
53.9158
20.0674
-4.32691
-16.9258
-18.1389
-10.662
1.47442
14.0488
23.6716
28.4425
28.1242
23.8625
17.5994
11.3899
6.82583
4.70689
5.00542
7.07769
10.0109
12.9739
15.4625
17.3822
18.9736
20.634
22.7155
25.3736
28.5127
31.8354
34.9659
37.5963
39.601
41.0835
42.3421
43.7736
45.7497
48.5085
52.0934
56.3565
61.0173
65.7548
70.301
74.507
78.3658
81.9894
85.5538
89.23
93.124
97.2364
101.449
105.535
109.18
112.015
113.65
113.711
111.883
107.96
101.899
93.8592
84.2192
73.5599
62.5981
52.0843
42.6794
34.8383
28.731
24.2242
20.9309
18.3187
15.8505
13.1224
9.9604
6.4545
2.91869
-0.208152
-2.49353
-3.6376
-3.56041
-2.42756
-0.609224
1.41408
3.1715
4.31459
4.69278
4.37349
3.60463
2.73283
2.10262
1.96476
2.41833
3.39954
4.71667
6.11725
7.36547
8.30664
8.90109
9.22032
9.41035
9.63661
10.0293
10.6462
11.4635
12.3942
13.3262
14.1656
14.8703
15.4622
16.0173
16.6356
17.4016
18.3498
19.4419
20.5644
21.5458
22.1883
22.3076
21.7726
20.538
18.6649
16.3261
13.7931
11.4046
9.51758
8.44728
8.40324
9.43621
11.4091
14.004
16.7697
19.2048
20.8611
21.442
20.8729
19.3205
17.1549
14.861
12.9207
11.6974
11.3539
11.8254
12.8539
14.0733
15.1176
15.7218
15.7849
15.3791
14.7066
14.0197
13.533
13.3555
13.4651
13.7301
13.9698
14.0315
13.8565
13.5129
13.1841
13.1159
13.5385
14.59
16.2645
18.401
20.7177
22.8811
24.5892
25.6452
26.0003
25.7558
25.1246
24.3647
23.7073
23.2966
23.162
23.226
23.3449
23.368
23.1971
22.8259
22.3487
21.936
21.7833
22.0528
22.8264
24.0863
25.7328
27.6306
29.6688
31.807
34.0878
36.6016
39.4125
42.4714
45.5518
48.2482
50.0538
50.5098
49.3832
46.8089
43.3271
39.7758
37.0395
35.7178
35.82
36.6098
36.6948
34.3902
28.2906
17.8983
4.10393
-10.6707
-22.7851
-28.1326
-23.1801
-6.02704
22.8203
60.2154
100.801
138.039
165.612
178.831
175.705
157.359
127.724
92.561
58.1046
29.678
10.6325
1.85725
1.93123
7.81506
15.8417
22.7122
26.2361
25.6591
21.5593
15.4128
9.01028
3.91233
1.08871
0.801903
2.71107
6.11056
10.196
14.2688
17.8344
20.5983
22.4022
23.1521
22.7811
21.2616
18.6506
15.1387
11.0671
6.89341
3.11146
0.145857
-1.74215
-2.50795
-2.31929
-1.49798
-0.428189
0.539716
1.16272
1.33989
1.10606
0.5946
-0.0142229
-0.543252
-0.856154
-0.87925
-0.609232
-0.110405
0.496117
1.05129
1.38633
1.35982
0.89939
0.0382843
-1.06535
-2.13771
-2.83199
-2.79929
-1.77278
0.356992
3.49796
7.35878
11.5003
15.4243
18.6768
20.9382
22.076
22.1497
21.368
20.0172
18.3834
16.6913
15.0766
13.5923
12.2406
11.0125
9.91689
8.98925
8.27844
7.82165
7.6221
7.64262
7.82058
8.09923
8.46135
8.94826
9.65179
10.677
12.0867
13.8486
15.8077
17.7009
19.2157
20.0793
20.1506
19.4823
18.3303
17.0997
16.2396
16.1175
16.909
18.5407
20.7041
22.939
24.7623
25.8041
25.9093
25.1762
23.9198
22.5747
21.5655
21.187
21.5268
22.4529
23.665
24.7927
25.5073
25.6149
25.1043
24.14
23.0049
22.0139
21.4252
21.3718
21.8335
22.6497
23.5678
24.3104
24.6423
24.4231
23.6325
22.3696
20.828
19.2548
17.9046
16.9946
16.6692
16.9758
17.8577
19.1608
20.6576
22.0825
23.176
23.7289
23.6195
22.8365
21.4816
19.7519
17.9046
16.2127
14.9194
14.2001
14.1392
14.7221
15.8438
17.3282
18.9564
20.4974
21.7397
22.52
22.7467
22.4154
21.6128
20.5059
19.3168
18.2845
17.6206
17.4668
17.8646
18.7452
19.9425
21.2302
22.3732
23.1832
23.5654
23.5438
23.2581
22.9299
22.8055
23.0874
23.8724
25.1142
26.6258
28.1272
29.3309
30.0454
30.2658
30.2185
30.3331
31.1377
33.0926
36.4098
40.9156
46.0139
50.7842
54.2067
55.4607
54.207
50.7517
46.0122
41.2654
37.7265
36.0839
36.1463
36.7533
36.0293
31.9586
23.1419
9.51266
-7.23518
-23.698
-35.3569
-37.6188
-27.0588
-2.52612
34.2151
78.5348
123.72
162.335
187.823
195.964
185.788
159.743
123.06
82.507
44.8654
15.5104
-2.5586
-9.042
-6.00168
2.9821
13.8871
23.2589
28.9085
30.1703
27.7255
23.1134
18.1172
14.2132
12.2223
12.2216
13.6894
15.7967
17.7317
18.9561
19.3305
19.0976
18.752
18.856
19.8631
21.9974
25.2114
29.2224
33.6022
37.8904
41.7008
44.7972
47.1303
48.8336
50.1868
51.5558
53.3221
55.8119
59.2337
63.6356
68.889
74.7051
80.6831
86.385
91.422
95.534
98.641
100.851
102.42
103.662
104.848
106.093
107.296
108.121
108.053
106.506
102.97
97.1424
89.0274
78.9672
67.5964
55.7309
44.2202
33.7988
24.9741
17.9751
12.7704
9.14169
6.7876
5.42376
4.84951
4.96541
5.74182
7.15583
9.12336
11.4545
13.8509
15.9503
17.4042
17.9667
17.5641
16.3217
14.5391
12.6183
10.9662
9.89912
9.57567
9.97622
10.9299
12.1775
13.4488
14.5286
15.2964
15.73
15.8818
15.8399
15.6919
15.5041
15.3194
15.1694
15.0888
15.1219
15.314
15.6911
16.2367
16.8797
17.5021
17.9697
18.1779
18.0946
17.785
17.4025
17.1458
17.1926
17.6319
18.4185
19.3705
20.2129
20.6583
20.5002
19.6873
18.3544
16.7949
15.3833
14.468
14.2683
14.8091
15.9123
17.2511
18.4487
19.1915
19.3223
18.8835
18.0981
17.295
16.8028
16.8443
17.4655
18.5202
19.7133
20.6898
21.1407
20.8954
19.9724
18.5757
17.0396
15.7397
14.9966
14.9987
15.7641
17.1474
18.8871
20.6749
22.2287
23.3497
23.9522
24.0643
23.8044
23.3425
22.8596
22.511
22.4005
22.5648
22.9697
23.5155
24.0532
24.4106
24.4284
24.0016
23.1189
21.8893
20.5442
19.4093
18.8434
19.1569
20.5267
22.9318
26.1326
29.7073
33.1426
35.9619
37.8555
38.7745
38.9543
38.851
39.0016
39.845
41.5583
43.9685
46.5777
48.7106
49.7441
49.3478
47.6445
45.2162
42.925
41.5832
41.5708
42.5382
43.3286
42.2025
37.3505
27.5804
12.9749
-4.70894
-22.085
-34.7008
-38.0372
-28.7139
-5.57841
29.6521
72.4258
116.126
153.424
177.891
185.463
175.354
150.205
115.392
77.7261
43.8569
18.8253
5.11147
2.3883
7.98363
17.8622
27.8177
34.5373
36.2761
33.0153
26.1374
17.7834
10.1198
4.73592
2.31892
2.64951
4.86004
7.82996
10.5744
12.511
13.5474
13.9987
14.3951
15.2606
16.94
19.5185
22.8397
26.5961
30.4466
34.1165
37.4514
40.4171
43.0609
45.4594
47.6788
49.7637
51.7559
53.7293
55.8209
58.2365
61.2224
65.0042
69.7114
75.3099
81.5698
88.0803
94.316
99.7364
103.893
106.512
107.533
107.084
105.41
102.776
99.3745
95.2622
90.3625
84.516
77.5733
69.4965
60.4362
50.7571
41.0016
31.799
23.7448
17.2841
12.6305
9.74264
8.36167
8.09612
8.52819
9.31039
10.2271
11.2075
12.2926
13.5718
15.1112
16.8993
18.824
20.6864
22.2449
23.2737
23.6184
23.2318
22.1826
20.6379
18.8255
16.9889
15.3466
14.064
13.2403
12.9106
13.0566
13.6213
14.5232
15.6678
16.9567
18.2951
19.5996
20.8059
21.8738
22.7888
23.5559
24.1885
24.6923
25.051
25.2192
25.1279
24.7036
23.8988
22.7249
21.2774
19.7419
18.3745
17.4553
17.2246
17.8151
19.2005
21.175
23.377
25.3526
26.6505
26.9249
26.0209
24.0223
21.245
18.1776
15.3804
13.3662
12.4903
12.8761
14.3918
16.6842
19.2609
21.6016
23.2724
24.0184
23.8131
22.8548
21.5101
20.22
19.3884
19.2809
19.9573
21.2556
22.832
24.2472
25.0788
25.0316
24.0159
22.1752
19.8533
17.5125
15.6216
14.547
14.4722
15.3685
17.0187
19.0853
21.2001
23.049
24.4304
25.2753
25.6304
25.6176
25.3849
25.0668
24.7618
24.5278
24.3886
24.3439
24.3767
24.4581
24.5564
24.6538
24.7744
25.0161
25.5695
26.7066
28.7253
31.8508
36.1176
41.2686
46.7201
51.6262
55.0503
56.2128
54.7454
50.8666
45.3984
39.5847
34.7385
31.8044
30.9783
31.525
31.8963
30.165
24.6833
14.7845
1.30207
-13.2962
-25.2655
-30.3995
-25.1252
-7.58832
21.5833
59.0892
99.4412
136.044
162.617
174.601
170.181
150.672
120.155
84.4862
49.9414
21.8467
3.54172
-4.09849
-2.51406
5.2133
15.3293
24.3907
30.0133
31.231
28.437
22.9952
16.683
11.1463
7.50781
6.20246
7.03528
9.39361
12.5184
15.7425
18.6364
21.0423
23.018
24.7323
26.3608
28.0151
29.7223
31.4479
33.1429
34.793
36.4488
38.2285
40.2941
42.8082
45.8863
49.5568
53.7401
58.2525
62.8364
67.2114
71.1383
74.4802
77.2471
79.609
81.8695
84.3994
87.5421
91.5098
96.2967
101.632
106.991
111.661
114.865
115.89
114.229
109.666
102.322
92.631
81.2682
69.0451
56.7977
45.2871
35.1258
26.7357
20.3338
15.9391
13.3932
12.3915
12.5238
13.3237
14.327
15.1336
15.4644
15.2005
14.3964
13.2583
12.0922
11.2311
10.956
11.4322
12.6722
14.5358
16.7649
19.042
21.0584
22.5749
23.4605
23.705
23.4038
22.7235
21.8596
20.9969
20.2816
19.8094
19.6273
19.7448
20.1467
20.8018
21.6636
22.665
23.7108
24.675
25.4096
25.7658
25.6268
24.9428
23.7589
22.223
20.569
19.0739
17.998
17.5233
17.7049
18.4527
19.548
20.6928
21.5805
21.9674
21.7294
20.8868
19.5937
18.0955
16.6676
15.552
14.9059
14.7758
15.098
15.7247
16.4654
17.1345
17.5929
17.777
17.7083
17.4848
17.2535
17.172
17.3652
17.8891
18.7082
19.697
20.6645
21.3995
21.7253
21.5493
20.8925
19.8893
18.7552
17.7312
17.0199
16.7333
16.8682
17.3163
17.9072
18.4674
18.8769
19.1024
19.197
19.2653
19.409
19.6731
20.0175
20.3255
20.4543
20.308
19.9113
19.4493
19.2541
19.7316
21.2434
23.9798
27.8669
32.547
37.4493
41.942
45.5227
47.9882
49.5201
50.6465
52.0773
54.4563
58.1076
62.867
68.0699
72.7189
75.7904
76.5863
75.0029
71.6086
67.4744
63.7902
61.3842
60.3167
59.7186
57.9811
53.2885
44.3601
31.1711
15.3899
0.328277
-9.66475
-10.2635
1.58489
26.5773
62.4794
104.282
145.11
177.687
195.998
196.695
179.89
149.102
110.389
70.8885
37.1833
13.8895
2.83365
2.97303
11.0187
22.5314
33.1565
39.6635
40.5452
36.0822
27.9382
18.4667
9.96492
4.08511
1.53336
2.08301
4.83431
8.59522
12.2494
15.0098
16.5139
16.7758
16.0504
14.6816
12.9906
11.2324
9.61465
8.34731
7.68396
7.92491
9.37097
12.2411
16.584
22.2181
28.7298
35.5377
42.0135
47.629
52.0877
55.4057
57.9138
60.1775
62.8523
66.5092
71.4752
77.7306
84.8899
92.272
99.0425
104.391
107.696
108.641
107.251
103.838
98.8929
92.9425
86.4227
79.6034
72.5817
65.3407
57.8469
50.149
42.4412
35.0655
28.4501
23.0028
18.9942
16.4707
15.2289
14.862
14.8686
14.7908
14.3401
13.4745
12.4007
11.5029
11.2194
11.9031
13.7078
16.5312
20.0304
23.7009
26.9964
29.4547
30.7966
30.9756
30.1704
28.7292
27.0839
25.6579
24.7887
24.6775
25.3704
26.7691
28.6618
30.7663
32.7778
34.4155
35.4644
35.8078
35.4464
34.5013
33.1958
31.8196
30.6766
30.0276
30.0383
30.7447
32.0436
33.7113
35.4477
36.9339
37.8924
38.1351
37.5905
36.3048
34.4214
32.1445
29.6995
27.2997
25.126
23.3194
21.985
21.1975
21.002
21.408
22.375
23.7998
25.5128
27.2913
28.8939
30.1081
30.7998
30.949
30.6573
30.1224
29.586
29.2713
29.3298
29.8164
30.6994
31.9
33.3398
34.9763
36.8037
38.817
40.9496
43.0119
44.6633
45.44
44.8453
42.4816
38.1879
32.1342
24.8376
17.0826
9.76216
3.67945
-0.631005
-3.0113
-3.68439
-3.15497
-2.03988
-0.883494
-0.0177377
0.489175
0.782334
1.09098
1.57269
2.19461
2.70451
2.71321
1.86744
0.0529728
-2.45425
-4.96508
-6.52284
-6.20106
-3.47534
1.45356
7.51636
12.9066
15.5042
13.5125
6.14052
-5.88172
-20.1528
-32.9272
-39.9014
-37.2963
-22.9598
2.82062
37.0594
74.4913
108.61
133.089
143.233
137.079
115.857
83.6963
46.6421
11.2655
-16.7871
-33.9311
-39.2092
-34.1885
-22.2766
-7.68705
5.64744
14.9341
18.9679
18.115
13.911
8.43971
3.69259
1.07704
1.17255
3.74867
7.98609
12.8006
17.1644
20.3439
22.0158
22.2626
21.4804
20.2432
19.1659
18.7924
19.5214
21.5693
24.9632
29.5557
35.0568
41.0781
47.1886
52.9759
58.1065
62.3766
65.7433
68.3321
70.4159
72.3719
74.6207
77.5593
81.4957
86.5959
92.848
100.049
107.814
115.613
122.826
128.81
132.987
134.909
134.325
131.212
125.772
118.404
109.639
100.059
90.2196
80.5818
71.4731
63.0797
55.4686
48.6289
42.5199
37.1098
32.3964
28.404
25.1615
22.6709
20.8798
19.668
18.8555
18.2311
17.5949
16.8005
15.7876
14.5932
13.338
12.1934
11.3359
10.9021
10.9561
11.4764
12.3651
13.4763
14.6538
15.7711
16.7596
17.6206
18.4166
19.244
20.1944
21.3137
22.5724
23.8552
24.9769
25.7252
25.9197
25.4747
24.4475
23.0535
21.6391
20.6125
20.3444
21.0637
22.7761
25.2314
27.9568
30.3509
31.8224
31.936
30.5296
27.7674
24.1136
20.2299
16.8242
14.4891
13.5729
14.1159
15.8638
18.3515
21.0261
23.3759
25.0284
25.7992
25.6871
24.8318
23.4555
21.8129
20.1604
18.7452
17.8002
17.5301
18.0778
19.475
21.596
24.1398
26.6652
28.6867
29.8131
29.889
29.0871
27.9044
27.0424
27.1923
28.7845
31.7876
35.6372
39.3434
41.7643
41.9741
39.6064
35.0442
29.3672
24.0388
20.4098
19.1921
20.0904
21.7489
22.086
18.9597
10.9874
-1.73582
-17.2785
-32.0468
-41.5151
-41.3638
-28.7305
-3.21928
32.6476
73.7124
113.174
144.061
160.813
160.566
143.793
114.148
77.5631
40.846
10.1541
-10.2714
-18.8154
-16.5154
-6.46689
7.1785
20.3222
29.8466
34.1569
33.2624
28.4541
21.7312
15.1691
10.3991
8.30932
8.99299
11.9026
16.1214
20.6558
24.6732
27.6417
29.3684
29.9587
29.7293
29.1085
28.5458
28.44
29.0892
30.6602
33.1764
36.5237
40.4759
44.7372
48.9967
52.9854
56.5247
59.5557
62.1443
64.4613
66.7432
69.2416
72.1729
75.6753
79.7806
84.4025
89.3427
94.3122
98.9638
102.933
105.878
107.516
107.646
106.161
103.042
98.3404
92.1609
84.6458
75.9728
66.3657
56.1147
45.596
35.2777
25.6996
17.4231
10.9534
6.64996
4.64487
4.79417
6.67861
9.66143
12.9951
15.9555
17.9733
18.7322
18.2086
16.6474
14.4778
12.1956
10.2419
8.90885
8.29498
8.31642
8.76498
9.39139
9.98676
10.4389
10.7497
11.0133
11.3679
11.9385
12.7923
13.9178
15.2326
16.6123
17.9284
19.0798
20.0087
20.6976
21.1524
21.3812
21.3791
21.1269
20.6032
19.8055
18.7717
17.5914
16.4021
15.3693
14.6557
14.3877
14.6286
15.3639
16.5025
17.8916
19.3407
20.65
21.6383
22.1686
22.1688
21.6483
20.7064
19.5318
18.3875
17.58
17.4111
18.1198
19.8212
22.4597
25.7884
29.389
32.7353
35.2958
36.6575
36.6441
35.3975
33.3918
31.3655
30.1711
30.569
33.0122
37.4809
43.4216
49.8273
55.4553
59.1403
60.1196
58.2718
54.1814
48.9851
44.0211
40.3714
38.4394
37.7129
36.8285
33.9628
27.475
16.6247
2.13574
-13.6053
-26.8456
-33.2437
-28.9656
-11.8176
17.907
57.1385
100.431
140.998
172.148
188.756
188.407
171.896
142.974
107.419
71.6728
41.4168
20.4409
10.0596
9.1755
14.9063
23.5523
31.6179
36.6177
37.4927
34.5886
29.2751
23.3693
18.5524
15.9407
15.8972
18.0879
21.7175
25.8382
29.6296
32.5751
34.5086
35.5492
35.9729
36.0784
36.0911
36.1285
36.2218
36.3713
36.6032
37.0022
37.7078
38.8754
40.6204
42.9659
45.8159
48.9642
52.1386
55.068
57.5542
59.5246
61.0532
62.3405
63.6574
65.2671
67.3423
69.8995
72.7655
75.5836
77.8606
79.044
78.6158
76.1859
71.5686
64.8287
56.2901
46.5045
36.1835
26.1044
17.0019
9.46448
3.85263
0.254436
-1.51039
-1.83692
-1.24078
-0.242367
0.744849
1.49516
2.00015
2.43858
3.09419
4.24363
6.04606
8.46698
11.2597
14.0115
16.2435
17.536
17.6433
16.5662
14.56
12.0772
9.65997
7.81438
6.89778
7.04872
8.17281
9.98268
12.076
14.0283
15.4766
16.1779
16.0332
15.0809
13.467
11.4042
9.12921
6.86799
4.81239
3.11086
1.87157
1.17385
1.08068
1.6434
2.89089
4.80075
7.25869
10.0222
12.7109
14.8441
15.9341
15.6223
13.821
10.8079
7.21865
3.90808
1.68952
1.01441
1.69447
2.78137
2.69281
-0.392572
-7.93799
-20.401
-36.7381
-54.257
-68.9341
-76.195
-72.0062
-54.0139
-22.415
19.7132
66.7737
111.665
147.236
167.829
170.525
155.77
127.219
90.8544
53.5954
21.7733
-0.155705
-10.3585
-9.69276
-1.13996
11.1913
23.1956
31.7355
35.2194
33.7011
28.5477
21.8291
15.6369
11.5229
10.1879
11.4594
14.5111
18.221
21.5414
23.7775
24.7137
24.5822
23.9124
23.3259
23.3452
24.2666
26.1187
28.7036
31.691
34.7325
37.5594
40.0431
42.2095
44.2115
46.275
48.6355
51.481
54.9128
58.929
63.4306
68.2455
73.164
77.9778
82.5159
86.6692
90.4003
93.734
96.7318
99.4519
101.906
104.023
105.627
106.447
106.147
104.385
100.888
95.5187
88.3288
79.5837
69.7449
59.417
49.2662
39.9237
31.8938
25.4846
20.772
17.6074
15.6643
14.516
13.7275
12.9427
11.9483
10.7011
9.3133
8.00035
7.00652
6.52712
6.64919
7.32638
8.39453
9.62218
10.7801
11.7082
12.3577
12.798
13.1834
13.6948
14.4737
15.5722
16.9351
18.4186
19.8388
21.03
21.8927
22.4118
22.6413
22.6607
22.5226
22.2136
21.6479
20.6981
19.2568
17.3055
14.9665
12.5115
10.3206
8.79624
8.2571
8.8431
10.463
12.803
15.397
17.7396
19.4107
20.1754
20.0323
19.198
18.035
16.9464
16.2679
16.1888
16.7184
17.7044
18.8921
20.0022
20.8055
21.1735
21.0957
20.6642
20.0337
19.3737
18.8239
18.4656
18.3135
18.326
18.4305
18.5544
18.6551
18.74
18.8721
19.1584
19.7221
20.6644
22.0253
23.7537
25.6987
27.6268
29.2666
30.3714
30.7844
30.4885
29.6229
28.46
27.3425
26.5972
26.4472
26.9469
27.9614
29.1962
30.2712
30.8209
30.5918
29.5106
27.7064
25.4787
23.2247
21.344
20.1487
19.801
20.2917
21.4608
23.049
24.7623
26.3292
27.5397
28.2584
28.4182
28.0053
27.0455
25.6026
23.7863
21.7635
19.7622
18.0553
16.9207
16.5833
17.1524
18.5765
20.6347
22.9749
25.1973
26.963
28.0974
28.6554
28.9219
29.3384
30.371
32.3504
35.3337
39.0292
42.8155
45.8574
47.2947
46.4551
43.0346
37.1953
29.5511
21.0439
12.7434
5.62076
0.357479
-2.76762
-3.88853
-3.46692
-2.14262
-0.565033
0.749826
1.50461
1.6364
1.27163
0.643938
0.00386549
-0.454009
-0.631508
-0.531968
-0.237393
0.129535
0.445423
0.618236
0.606334
0.423481
0.131359
-0.177725
-0.404698
-0.470017
-0.337024
-0.0259039
0.387776
0.793193
1.08111
1.18915
1.14193
1.07104
1.20305
1.81266
3.14902
5.35408
8.39731
12.0499
15.9113
19.4879
22.3046
24.0227
24.5297
23.9766
22.7498
21.385
20.445
20.3958
21.5097
23.8228
27.1497
31.1499
35.4224
39.6018
43.4325
46.8068
49.7622
52.4482
55.0753
57.8613
60.9877
64.5712
68.6502
73.1836
78.0573
83.0953
88.0733
92.7365
96.819
100.065
102.249
103.187
102.745
100.837
97.4188
92.4863
86.0789
78.2938
69.3085
59.4018
48.9646
38.4885
28.5266
19.6291
12.2634
6.73832
3.14932
1.36312
1.04633
1.73392
2.92121
4.15689
5.11468
5.62752
5.67955
5.36297
4.81656
4.16644
3.48707
2.7924
2.05653
1.25337
0.399059
-0.419646
-1.04258
-1.26229
-0.873034
0.270548
2.20162
4.81125
7.85031
10.965
13.7598
15.8754
17.0642
17.2465
16.5349
15.218
13.7069
12.4513
11.8453
12.1406
13.3894
15.4292
17.9167
20.4029
22.433
23.6474
23.8596
23.0912
21.5563
19.6015
17.6158
15.9383
14.7847
14.2136
14.137
14.3703
14.7037
14.9737
15.1126
15.1644
15.2621
15.5772
16.2553
17.3593
18.8346
20.5076
22.1167
23.3684
24.004
23.8602
22.9108
21.2782
19.2144
17.0531
15.1455
13.7907
13.1765
13.3415
14.1681
15.4063
16.726
17.7865
18.3072
18.1271
17.2365
15.7763
14.0034
12.2323
10.7648
9.82629
9.52186
9.82235
10.5814
11.5777
12.5706
13.3562
13.8097
13.9074
13.7244
13.4107
13.1528
13.1289
13.4684
14.2222
15.3517
16.7372
18.2056
19.571
20.6786
21.4424
21.863
22.0227
22.0569
22.1099
22.2927
22.6562
23.1937
23.8725
24.6837
25.6873
27.0282
28.9054
31.4937
34.8387
38.7649
42.8394
46.4251
48.8279
49.505
48.2709
45.4217
41.714
38.1728
35.7651
35.0314
35.8034
37.1278
37.4676
35.1665
29.0644
19.0828
6.57686
-5.70731
-14.1238
-14.9879
-5.60057
14.8465
44.7615
80.2258
115.682
145.096
163.307
167.216
156.506
133.684
103.457
71.5989
43.6203
23.5779
13.3266
12.3625
18.2484
27.4562
36.3639
42.1345
43.2638
39.7056
32.6053
23.7803
15.1291
8.14297
3.63232
1.69646
1.89086
3.49582
5.78245
8.19694
10.4295
12.3813
14.0743
15.5579
16.8539
17.9536
18.8568
19.6234
20.4051
21.4381
22.9951
25.312
28.517
32.5873
37.3484
42.5147
47.7582
52.7818
57.3768
61.4504
65.0237
68.2067
71.1635
74.0801
77.1387
80.4968
84.264
88.4715
93.034
97.7123
102.095
105.612
107.599
107.401
104.509
98.6894
90.0801
79.2127
66.9527
54.3616
42.5086
32.2775
24.2133
18.4467
14.7113
12.4476
10.9601
9.58809
7.84548
5.49903
2.57436
-0.701462
-3.99536
-6.97032
-9.36617
-11.0425
-11.9811
-12.2586
-12.0043
-11.3605
-10.4553
-9.38987
-8.23711
-7.04457
-5.83657
-4.61474
-3.36
-2.04104
-0.632054
0.862197
2.38179
3.79866
4.92562
5.55165
5.49883
4.68675
3.18442
1.23015
-0.792736
-2.42433
-3.22671
-2.88834
-1.30608
1.37868
4.80152
8.45026
11.7753
14.3072
15.7515
16.0388
15.3189
13.9051
12.1843
10.5207
9.1747
8.25894
7.73728
7.4639
7.24814
6.92575
6.41677
5.75497
5.08214
4.60978
4.55932
5.09721
6.28243
8.04071
10.1727
12.3946
14.4013
15.9347
16.841
17.1005
16.8216
16.2039
15.4774
14.839
14.4024
14.1754
14.0719
13.9522
13.6795
13.1749
12.4532
11.6302
10.8982
10.4783
10.5625
11.2623
12.5776
14.393
16.5013
18.6469
20.5781
22.0946
23.0809
23.5192
23.481
23.1022
22.5479
21.9766
21.51
21.2169
21.1099
21.1578
21.3049
21.4941
21.6843
21.8585
22.0208
22.1841
22.3566
22.5323
22.6923
22.8173
22.9068
22.9955
23.1573
23.4892
24.0766
24.9503
26.0513
27.2227
28.2403
28.8803
29.0081
28.6564
28.0598
27.621
27.8027
28.9717
31.2398
34.3622
37.7412
40.5577
42.0036
41.5524
39.1733
35.401
31.2093
27.6998
25.687
25.3139
25.8482
25.7689
23.1717
16.4165
4.83915
-10.6987
-27.6349
-42.0305
-49.376
-45.7115
-28.7759
1.14069
40.9116
84.9871
126.449
158.466
175.792
175.924
159.62
130.66
94.9082
58.9475
28.6289
7.90615
-1.78625
-1.50724
5.79275
16.2357
26.0595
32.4721
34.1323
31.1965
24.9912
17.4605
10.5679
5.81242
3.95714
4.99364
8.29897
12.9026
17.772
22.0438
25.1619
26.9173
27.4101
26.9669
26.0428
25.13
24.683
25.0606
26.4853
29.019
32.557
36.8466
41.5287
46.2029
50.5041
54.1763
57.1252
59.4374
61.358
63.2307
65.4141
68.1951
71.7199
75.9606
80.7238
85.6974
90.5204
94.8547
98.4391
101.11
102.786
103.431
102.998
101.397
98.4787
94.0712
88.0337
80.335
71.1215
60.7549
49.8023
38.9753
29.0275
20.6317
14.2646
10.1248
8.10386
7.81573
8.67868
10.0311
11.2562
11.8892
11.6871
10.6482
8.9816
7.0355
5.20458
3.83629
3.15787
3.2385
3.99268
5.22038
6.67107
8.11301
9.38884
10.443
11.3151
12.1036
12.9132
13.8041
14.7612
15.693
16.4631
16.9435
17.0699
16.8823
16.5316
16.2487
16.2819
16.8219
17.9371
19.5413
21.406
23.2152
24.6476
25.4613
25.5541
24.9824
23.9323
22.654
21.3818
20.2661
19.341
18.5358
17.727
16.8087
15.7581
14.6685
13.7385
13.2179
13.3266
14.1745
15.7086
17.7076
19.8279
21.6896
22.9767
23.5233
23.3578
22.6929
21.8633
21.2292
21.0738
21.5242
22.5168
23.8189
25.0952
26.0027
26.2846
25.8381
24.7377
23.2112
21.5766
20.1593
19.2141
18.8712
19.1172
19.813
20.7374
21.6418
22.3012
22.5497
22.2973
21.5299
20.3007
18.7172
16.9288
15.1144
13.4651
12.1607
11.3401
11.0713
11.33
11.9991
12.8916
13.798
14.5434
15.0387
15.3062
15.4686
15.6997
16.1543
16.8967
17.8581
18.8384
19.5591
19.7529
19.2616
18.1102
16.5274
14.9023
13.6837
13.2527
13.8053
15.2856
17.3928
19.6654
21.6214
22.9138
23.4539
23.4622
23.4235
23.953
25.606
28.6838
33.0966
38.3305
43.5418
47.7643
50.1779
50.3619
48.4488
45.1171
41.4002
38.3517
36.655
36.3048
36.4822
35.7035
32.2449
24.7534
12.8778
-2.283
-18.0935
-30.7504
-36.0739
-30.556
-12.401
17.7368
56.5549
98.5542
137.072
165.669
179.534
176.544
157.716
126.935
90.025
53.4285
22.8106
1.94946
-7.84439
-7.68168
-0.493406
9.91601
19.8847
26.7158
29.1286
27.2792
22.4183
16.3363
10.7808
7.00653
5.55398
6.27011
8.51606
11.4628
14.3711
16.7773
18.5509
19.8359
20.9209
22.0951
23.5431
25.3052
27.3058
29.4263
31.5899
33.8207
36.2574
39.1139
42.6022
46.843
51.7948
57.2273
62.7514
67.9024
72.2551
75.5409
77.7339
79.0781
80.0458
81.2312
83.2036
86.3563
90.7881
96.2505
102.175
107.779
112.219
114.761
114.928
112.577
107.905
101.378
93.6018
85.1868
76.6254
68.2276
60.1192
52.2989
44.7292
37.4282
30.5307
24.2976
19.0717
15.1932
12.9033
12.2649
13.1257
15.1338
17.8008
20.5932
23.0278
24.7454
25.5494
25.4066
24.4164
22.7673
20.6931
18.442
16.2596
14.3818
13.0279
12.3859
12.5879
13.6787
15.589
18.1249
20.9831
23.7941
26.1863
27.8573
28.6331
28.5003
27.6013
26.1944
24.5884
23.0707
21.8468
21.0076
20.5295
20.306
20.1979
20.0856
19.9087
19.6806
19.4775
19.4057
19.5607
19.9911
20.6794
21.5434
22.4586
23.2904
23.9274
24.3037
24.4054
24.2613
23.9232
23.4452
22.8686
22.2189
21.5118
20.7652
20.0075
19.2791
18.6229
18.0701
17.6262
17.2664
16.9459
16.6216
16.2801
15.9583
15.7459
15.7645
16.1253
16.8774
17.9667
19.2207
20.3721
21.1208
21.2176
20.5486
19.19
17.4147
15.641
14.3345
13.8872
14.507
16.1498
18.515
21.1072
23.349
24.7155
24.8549
23.6645
21.3056
18.1563
14.7178
11.5024
8.93048
7.26007
6.56167
6.73606
7.56418
8.77162
10.0907
11.3078
12.2913
12.9996
13.4749
13.8269
14.21
14.7929
15.7242
17.0935
18.8946
21.0037
23.1817
25.1119
26.4746
27.0457
26.7956
25.9571
25.0286
24.6954
25.6718
28.4945
33.3229
39.8095
47.0982
53.973
59.1405
61.578
60.8467
57.2664
51.8726
46.1409
41.5375
39.0208
38.6577
39.5006
39.808
37.586
31.3181
20.6696
6.92819
-7.00418
-17.134
-19.3271
-10.4589
10.5533
42.1445
80.1389
118.472
150.448
170.235
174.196
161.732
135.396
100.263
62.7315
29.0737
4.10474
-9.70136
-12.4684
-6.54156
4.36362
16.2177
25.6498
30.6033
30.5579
26.3356
19.6131
12.3244
6.1333
2.09853
0.57986
1.3505
3.83159
7.34749
11.3195
15.3564
19.2452
22.8796
26.1756
29.0188
31.2624
32.7717
33.4905
33.4963
33.0203
32.4191
32.1069
32.4685
33.7783
36.1496
39.5232
43.6955
48.3734
53.2384
58.0043
62.4565
66.4712
70.0162
73.14
75.9539
78.6099
81.2721
84.0827
87.1201
90.3562
93.6208
96.588
98.7926
99.6853
98.7192
95.4552
89.6637
81.3977
71.0201
59.1738
46.7
34.52
23.5046
14.3567
7.52725
3.17658
1.18221
1.18513
2.66173
5.00664
7.61428
9.94973
11.6034
12.3259
12.0416
10.8388
8.93992
6.65232
4.30973
2.21285
0.580784
-0.477437
-0.966293
-0.983627
-0.68409
-0.237154
0.209111
0.550535
0.733097
0.746025
0.608513
0.357304
0.0397205
-0.287747
-0.559292
-0.703941
-0.658288
-0.38764
0.0902257
0.688803
1.25482
1.5952
1.52782
0.945572
-0.124697
-1.48885
-2.79453
-3.58863
-3.41488
-1.92995
0.992536
5.20029
10.2648
15.5528
20.3538
24.0325
26.1693
26.651
25.6886
23.7583
21.4802
19.4686
18.1926
17.8815
18.4976
19.7777
21.3265
22.7331
23.6761
23.9919
23.6901
22.9206
21.908
20.8779
19.9982
19.3519
18.9437
18.733
18.6759
18.7584
19.0076
19.4778
20.2176
21.2324
22.4585
23.7615
24.9616
25.8801
26.3927
26.4709
26.1969
25.7458
25.3373
25.1711
25.3653
25.9157
26.6894
27.455
27.9431
27.9191
27.2497
25.9458
24.1708
22.2118
20.4228
19.1527
18.6745
19.1312
20.5072
22.6306
25.2032
27.8535
30.2003
31.9199
32.802
32.7875
31.978
30.6148
29.0268
27.5585
26.4909
25.9775
26.0132
26.4503
27.0625
27.6416
28.0989
28.5336
29.2379
30.6215
33.0677
36.7588
41.5294
46.8088
51.6924
55.1466
56.3007
54.7406
50.7009
45.0697
39.1707
34.3603
31.5521
30.8233
31.2601
31.1379
28.4358
21.5661
10.1087
-4.69469
-19.8931
-31.3138
-34.517
-25.9967
-4.30132
29.2577
70.5543
113.325
150.446
175.498
184.225
175.506
151.578
117.465
79.7701
45.1498
18.8776
3.83827
0.176842
5.63051
16.3917
28.226
37.5326
42.0843
41.3065
36.0942
28.2915
20.029
13.1219
8.67803
6.98114
7.62292
9.79295
12.6076
15.3726
17.7162
19.5851
21.1377
22.598
24.1319
25.7859
27.4988
29.1684
30.7354
32.2453
33.8631
35.8326
38.3966
41.7075
45.7607
50.3742
55.2253
59.9304
64.1471
67.6647
70.4578
72.6871
74.6493
76.6922
79.1201
82.116
85.6992
89.7254
93.9223
97.9439
101.426
104.027
105.447
105.43
103.765
100.288
94.9058
87.6369
78.6523
68.3094
57.1523
45.8708
35.2159
25.8874
18.4169
13.0779
9.84452
8.4141
8.28786
8.88911
9.68835
10.3025
10.5445
10.4135
10.0357
9.57801
9.16592
8.83153
8.50821
8.07014
7.40002
6.45837
5.32734
4.2111
3.38998
3.14195
3.65647
4.96944
6.94078
9.28289
11.6315
13.6373
15.0501
15.772
15.8652
15.5163
14.9724
14.4684
14.1708
14.1482
14.375
14.7586
15.1779
15.5189
15.6986
15.6739
15.4406
15.0277
14.493
13.9199
13.4131
13.0882
13.0523
13.3756
14.0647
15.045
16.1635
17.2164
17.996
18.3464
18.2081
17.6391
16.8014
15.9183
15.2138
14.8539
14.9089
15.3469
16.0592
16.9048
17.7579
18.5391
19.222
19.8138
20.3228
20.7287
20.9715
20.9667
20.6432
19.9888
19.0843
18.1092
17.311
16.944
17.1944
18.1167
19.6014
21.3892
23.1269
24.4524
25.0825
24.8808
23.8854
22.2925
20.4037
18.5537
17.0395
16.0693
15.7396
16.0393
16.8734
18.0942
19.529
21.0011
22.3434
23.4091
24.0826
24.2941
24.0328
23.3549
22.3789
21.2684
20.2031
19.3476
18.8274
18.7189
19.0544
19.8375
21.0555
22.6811
24.6568
26.8697
29.1308
31.1793
32.7247
33.5276
33.5003
32.791
31.8121
31.1818
31.5749
33.5134
37.1574
42.1727
47.7368
52.7075
55.9258
56.5659
54.4175
49.9916
44.3861
38.9298
34.7033
32.1002
30.5958
28.8449
25.1251
18.0223
7.1494
-6.35051
-19.7307
-29.0947
-30.3153
-20.1952
2.45391
36.1462
76.7101
117.99
153.116
176.039
182.905
172.938
148.569
114.797
77.9757
44.3442
18.6953
3.50914
-1.27258
2.16082
10.3525
19.6169
26.9616
30.6679
30.436
27.1309
22.2739
17.4692
13.9394
12.2775
12.4388
13.9191
16.0215
18.1082
19.7657
20.8532
21.455
21.7803
22.0623
22.4943
23.2118
24.3104
25.872
27.9755
30.6806
33.9892
37.804
41.9107
45.9983
49.724
52.8047
55.1097
56.7217
57.9417
59.2305
61.0982
63.9705
68.0699
73.3443
79.4662
85.9018
92.0313
97.2872
101.272
103.825
105.017
105.09
104.345
103.031
101.257
98.9546
95.9061
91.8236
86.4556
79.6899
71.6229
62.5746
53.0458
43.6301
34.9031
27.3207
21.148
16.4372
13.0533
10.7369
9.18371
8.11818
7.34435
6.76388
6.36366
6.18265
6.27213
6.66286
7.34733
8.27866
9.38166
10.568
11.7484
12.8381
13.7563
14.4251
14.7729
14.7464
14.3295
13.5635
12.5587
11.4881
10.5611
9.9783
9.87968
10.3008
11.1526
12.2352
13.284
14.04
14.3233
14.0893
13.4501
12.6507
12.0078
11.8238
12.3018
13.4847
15.2361
17.2687
19.2131
20.7095
21.4952
21.4686
20.7093
19.454
18.0326
16.7842
15.975
15.7386
16.0528
16.7576
17.6069
18.3376
18.7386
18.6994
18.2274
17.4321
16.4806
15.5426
14.739
14.1124
13.6268
13.1961
12.7324
12.1959
11.629
11.1625
10.9863
11.2945
12.2181
13.7688
15.8117
18.0802
20.231
21.9262
22.9198
23.1219
22.6227
21.666
20.5817
19.6944
19.2387
19.3028
19.8188
20.5992
21.4059
22.0292
22.3496
22.364
22.172
21.9279
21.7796
21.8175
22.0501
22.415
22.8186
23.1865
23.5055
23.8374
24.2987
25.0123
26.0489
27.3804
28.8658
30.2801
31.3813
31.9972
32.1047
31.8734
31.6521
31.893
33.0277
35.3255
38.7747
43.0288
47.4451
51.2206
53.598
54.0919
52.6641
49.7835
46.3292
43.3407
41.6689
41.6276
42.7656
43.8616
43.1926
39.043
30.337
17.2124
1.33877
-14.1693
-25.2946
-28.0295
-19.4505
1.32993
32.6197
70.2066
108.066
139.582
158.99
162.694
150.091
123.707
88.5983
51.1742
17.7483
-6.80528
-19.9684
-21.8687
-14.9195
-2.95969
9.83861
19.9945
25.4226
25.6818
21.771
15.594
9.28835
4.61913
2.588
3.32376
6.231
10.3054
14.4952
17.9976
20.4213
21.798
22.4723
22.9307
23.6321
24.8891
26.8215
29.3774
32.3962
35.6838
39.0728
42.454
45.7786
49.0412
52.2565
55.4425
58.614
61.7866
64.9847
68.2469
71.6249
75.174
78.9398
82.9443
87.1773
91.5929
96.1116
100.624
104.992
109.049
112.591
115.378
117.138
117.58
116.427
113.457
108.548
101.724
93.1722
83.2514
72.4611
61.3892
50.641
40.7621
32.1716
25.116
19.6534
15.6698
12.9217
11.0967
9.87615
8.98821
8.24195
7.53727
6.85335
6.22243
5.69838
5.3293
5.14061
5.13056
5.2762
5.54477
5.90496
6.33363
6.81647
7.34361
7.90316
8.47596
9.03392
9.54233
9.96495
10.2698
10.4337
10.4446
10.3028
10.0209
9.62466
9.15494
8.66776
8.23237
7.92443
7.8143
7.95248
8.35592
9.00004
9.82009
10.7229
11.6067
12.383
12.9938
13.4197
13.6734
13.7852
13.7826
13.6746
13.4466
13.0694
12.5189
11.8009
10.9703
10.1358
9.44735
9.06515
9.12085
9.68018
10.7193
12.1222
13.7016
15.2369
16.521
17.403
17.8166
17.7895
17.4318
16.9095
16.4087
16.1004
16.1103
16.4991
17.254
18.2915
19.4698
20.611
21.5284
22.0595
22.0961
21.61
20.665
19.4133
18.0736
16.8942
16.1087
15.8919
16.3273
17.392
18.9606
20.8281
22.7442
24.4526
25.7288
26.4116
26.4272
25.8042
24.6783
23.2849
21.9358
20.9764
20.7256
21.4049
23.0711
25.5719
28.545
31.4715
33.785
35.016
34.9399
33.6835
31.7499
29.9393
29.1676
30.22
33.502
38.8628
45.556
52.3703
57.915
60.9929
60.9571
57.9358
52.8381
47.1103
42.2918
39.4914
38.949
39.8445
40.4528
38.6493
32.6472
21.7608
6.94712
-9.08573
-22.3036
-28.2534
-23.2452
-5.49423
24.1106
61.8692
101.857
137.131
161.265
169.832
161.429
137.99
104.29
66.7929
32.1363
5.66586
-9.62148
-13.4841
-8.14075
2.58631
14.4131
23.6951
28.2074
27.4431
22.4199
15.1207
7.77733
2.2179
-0.551726
-0.457068
1.82111
5.2057
8.62744
11.3474
13.1175
14.1601
15.0055
16.2596
18.385
21.5568
25.626
30.1852
34.703
38.6807
41.786
43.9311
45.2815
46.2026
47.163
48.6234
50.9383
54.2904
58.6694
63.8953
69.6745
75.6733
81.5888
87.2016
92.3974
97.1571
101.519
105.528
109.18
112.388
114.964
116.638
117.094
116.032
113.223
108.568
102.132
94.1535
85.0261
75.2535
65.3852
55.9435
47.3534
39.8904
33.6545
28.5773
24.4606
21.0379
18.0456
15.2875
12.6758
10.2414
8.11069
6.45696
5.44046
5.15361
5.58625
6.61884
8.04382
9.60721
11.0578
12.1907
12.8748
13.0617
12.7763
12.0987
11.1443
10.0498
8.96649
8.05908
7.50263
7.4718
8.11782
9.53446
11.7201
14.5477
17.7551
20.9658
23.7421
25.6644
26.421
25.8861
24.1669
21.6009
18.7011
16.0569
14.2117
13.546
14.1947
16.0211
18.6524
21.5712
24.2371
26.2081
27.2305
27.2758
26.5174
25.2574
23.828
22.4969
21.404
20.5463
19.8126
19.0517
18.152
17.1028
16.0169
15.107
14.6209
14.757
15.5864
17.008
18.7525
20.4376
21.6614
22.1081
21.6371
20.3287
18.4727
16.5007
14.8788
13.99
14.0361
14.9872
16.5917
18.444
20.092
21.1539
21.4132
20.8656
19.7067
18.2647
16.9002
15.9019
15.4096
15.3869
15.6496
15.9399
16.022
15.7682
15.2077
14.5233
13.9982
13.9282
14.5312
15.88
17.882
20.3091
22.8678
25.2839
27.3739
29.0787
30.452
31.6105
32.6672
33.6776
34.6208
35.4256
36.0324
36.4662
36.8879
37.5941
38.9544
41.294
44.7547
49.1778
54.0539
58.567
61.7365
62.6261
60.5708
55.3589
47.3178
37.2759
26.4058
15.9875
7.15155
0.665511
-3.18477
-4.59657
-4.1436
-2.59818
-0.734431
0.836281
1.76147
1.96247
1.57943
0.874629
0.128765
-0.440351
-0.71985
-0.703166
-0.461627
-0.103335
0.264509
0.559735
0.733602
0.767687
0.666314
0.450489
0.155736
-0.167673
-0.455887
-0.637419
-0.644645
-0.428173
0.0311259
0.717854
1.58875
2.58937
3.67582
4.83391
6.08865
7.49977
9.14396
11.0893
13.3703
15.9723
18.8301
21.8423
24.8959
27.8934
30.7739
33.5227
36.1663
38.758
41.3592
44.0237
46.7902
49.683
52.7184
55.9109
59.2747
62.8184
66.5359
70.3974
74.3489
78.3233
82.2606
86.1326
89.9589
93.8054
97.7565
101.867
106.101
110.284
114.074
116.99
118.475
118.004
115.201
109.94
102.399
93.0529
82.5967
71.8249
61.487
52.1624
44.1789
37.5967
32.2531
27.8521
24.0705
20.649
17.4458
14.4436
11.7159
9.36963
7.48715
6.0885
5.123
4.49
4.07695
3.79803
3.6183
3.55476
3.65571
3.96801
4.50618
5.23615
6.07994
6.93943
7.72947
8.4072
8.98578
9.52669
10.1132
10.8147
11.6543
12.5931
13.5353
14.354
14.9277
15.176
15.0822
14.6973
14.1249
13.4935
12.9275
12.5242
12.3444
12.4147
12.7367
13.2984
14.0786
15.0454
16.15
17.3201
18.4607
19.4637
20.2259
20.6697
20.7599
20.5098
19.9737
19.2292
18.3546
17.4108
16.434
15.4409
14.4457
13.4785
12.5995
11.9
11.4885
11.4656
11.894
12.7748
14.0364
15.5409
17.1065
18.5389
19.6646
20.3572
20.5519
20.2461
19.4894
18.368
16.988
15.4621
13.9023
12.4168
11.1108
10.0858
9.43762
9.24899
9.57785
10.4426
11.8069
13.5691
15.5597
17.5522
19.2902
20.5276
21.0792
20.8691
19.9653
18.5875
17.0785
15.8402
15.2439
15.5357
16.7636
18.7512
21.1345
23.4585
25.3143
26.4757
26.9936
27.2063
27.6523
28.898
31.3289
34.9687
39.3973
43.8119
47.2327
48.8043
48.0999
45.321
41.302
37.2877
34.5251
33.7888
35.0002
37.0977
38.2515
36.4112
30.0578
18.9357
4.51534
-10.0182
-20.328
-21.9533
-11.5564
11.9528
46.7598
88.1952
129.543
163.447
183.572
186.092
170.608
140.243
100.903
59.8754
24.1676
-1.00464
-13.1974
-12.9792
-3.43122
10.8981
25.2602
35.8491
40.5424
39.108
32.9036
24.2302
15.568
8.91839
5.406
5.19363
7.66513
11.7652
16.3655
20.5496
23.7618
25.8184
26.8239
27.0505
26.8317
26.4969
26.346
26.6477
27.6362
29.4919
32.3079
36.0549
40.565
45.5498
50.6559
55.5446
59.9748
63.8605
67.2879
70.4826
73.7403
77.3408
81.47
86.1716
91.3389
96.7427
102.084
107.05
111.367
114.818
117.252
118.57
118.7
117.583
115.171
111.429
106.355
99.9983
92.4776
83.9855
74.785
65.1944
55.5657
46.2586
37.6134
29.9264
23.4269
18.2584
14.4667
11.9955
10.6942
10.338
10.66
11.3904
12.2957
13.2094
14.0457
14.792
15.4823
16.1581
16.8301
17.4543
17.9313
18.1343
17.9578
17.3726
16.4682
15.4634
14.6754
14.449
15.0615
16.6288
19.0422
21.9588
24.8557
27.1399
28.2882
27.9824
26.2021
23.247
19.6818
16.2132
13.5305
12.1498
12.3
13.8798
16.4927
19.5495
22.4092
24.523
25.5461
25.3939
24.2334
22.4192
20.3925
18.573
17.2662
16.6081
16.5542
16.9108
17.3976
17.724
17.6617
17.0975
16.0568
14.6934
13.251
12.0042
11.1949
10.9764
11.3805
12.3126
13.5772
14.9266
16.1202
16.9782
17.418
17.4616
17.215
16.8272
16.4409
16.1518
15.9887
15.919
15.8762
15.7976
15.6577
15.4826
15.3405
15.3129
15.4583
15.7858
16.2549
16.8019
17.389
18.0513
18.9202
20.2015
22.106
24.7482
28.0487
31.6827
35.1079
37.6816
38.8425
38.3013
36.1688
32.9603
29.4492
26.396
24.2353
22.8307
21.4127
18.7609
13.6214
5.25665
-6.04032
-18.6559
-29.739
-35.7063
-33.0907
-19.5309
5.36929
39.5821
78.7749
117.036
148.065
166.542
169.328
156.187
129.834
95.2969
58.7642
26.2244
2.23454
-10.8815
-13.2447
-7.04641
4.25506
16.9152
27.7909
34.9257
37.7343
36.8115
33.4867
29.2968
25.5382
23.0027
21.9279
22.1216
23.1738
24.6668
26.3131
27.997
29.7333
31.5852
33.5895
35.7213
37.9068
40.0708
42.1887
44.3156
46.5766
49.121
52.0581
55.4021
59.0467
62.7818
66.3478
69.5084
72.1201
74.1766
75.8169
77.2977
78.9406
81.0699
83.956
87.7725
92.5701
98.2634
104.625
111.288
117.752
123.408
127.584
129.61
128.912
125.109
118.099
108.115
95.7275
81.7925
67.3422
53.4421
41.039
30.8289
23.172
18.0695
15.2045
14.0357
13.9209
14.244
14.5189
14.4522
13.9572
13.1222
12.1469
11.2665
10.6827
10.5164
10.7905
11.4409
12.3482
13.377
14.4121
15.38
16.2544
17.0464
17.7856
18.5002
19.2017
19.8801
20.5062
21.0415
21.4478
21.696
21.7688
21.6606
21.374
20.9189
20.3137
19.5902
18.8005
18.0216
17.3551
16.9184
16.8275
17.1736
17.9982
19.2726
20.8882
22.6604
24.3496
25.6952
26.459
26.4687
25.6542
24.0682
21.8849
19.3772
16.8729
14.7003
13.1322
12.3397
12.3672
13.1324
14.4515
16.0834
17.7811
19.3378
20.6178
21.5644
22.1871
22.5346
22.6634
22.6135
22.3983
22.0104
21.4395
20.6924
19.8073
18.8546
17.9241
17.1034
16.4565
16.0111
15.7617
15.6865
15.7711
16.0274
16.497
17.2335
18.2686
19.5729
21.0319
22.4519
23.6032
24.2963
24.4667
24.2387
23.9363
24.0237
24.9786
27.1292
30.5046
34.7556
39.188
42.9196
45.1285
45.3222
43.5364
40.3795
36.8809
34.1612
33.0127
33.5234
34.8893
35.5197
33.4557
27.0214
15.5327
-0.160229
-17.5008
-32.5442
-40.7495
-38.0805
-22.1414
6.96901
46.3493
90.663
133.134
166.947
186.705
189.59
175.916
148.97
114.168
77.7862
45.5809
21.6508
7.7926
3.46219
6.28379
12.9152
20.0071
25.0032
26.6026
24.8216
20.7069
15.8359
11.7757
9.65104
9.91626
12.3525
16.2455
20.6599
24.7164
27.7986
29.6487
30.3543
30.2521
29.7933
29.4124
29.4294
30.0007
31.1194
32.653
34.405
36.1849
37.8705
39.4519
41.0479
42.8886
45.2656
48.4587
52.6537
57.8726
63.9372
70.4822
77.0195
83.0426
88.1471
92.1315
95.0486
97.1873
98.9817
100.87
103.138
105.794
108.515
110.678
111.488
110.166
106.143
99.2282
89.6864
78.2133
65.8102
53.5879
42.5497
33.4072
26.4707
21.6404
18.4907
16.423
14.8411
13.3038
11.6156
9.83846
8.22837
7.1204
6.79946
7.39413
8.82255
10.8027
12.9214
14.7394
15.9033
16.233
15.7617
14.7216
13.4801
12.4446
11.9632
12.2436
13.3106
15.0097
17.0518
19.0879
20.7908
21.9265
22.3978
22.2522
21.6549
20.8377
20.0369
19.4385
19.1427
19.1553
19.4058
19.7825
20.1743
20.5034
20.7425
20.9108
21.0539
21.2169
21.421
21.6521
21.8664
22.0077
22.0304
21.9183
21.6907
21.3954
21.0906
20.8249
20.6232
20.4855
20.3973
20.3472
20.342
20.4113
20.5971
20.9323
21.4153
21.9936
22.5655
23.0017
23.1841
23.0464
22.6039
21.9587
21.2767
20.7424
20.5055
20.6359
21.1049
21.7961
22.5444
23.1891
23.623
23.8223
23.848
23.8199
23.8734
24.1153
24.5899
25.2684
26.0593
26.8354
27.4679
27.856
27.9467
27.7417
27.2944
26.6986
26.0753
25.5569
25.2722
25.3327
25.8213
26.7878
28.2509
30.2072
32.6409
35.5257
38.8122
42.3979
46.0893
49.5729
52.4206
54.1476
54.3274
52.7401
49.511
45.1784
40.6393
36.9521
35.0234
35.2591
37.296
39.9296
41.3168
39.4501
32.8081
21.0078
5.24674
-11.6468
-25.6418
-32.3654
-28.2071
-11.3835
17.3439
54.5326
94.5931
130.901
157.226
169.116
164.883
145.939
116.39
82.0185
48.9241
22.1794
4.83933
-2.47881
-1.38836
4.98598
13.0002
19.4698
22.3859
21.2182
16.7874
10.804
5.24824
1.78277
1.34756
4.0155
9.10115
15.4489
21.7917
27.0724
30.6536
32.3828
32.5288
31.634
30.3379
29.2234
28.7168
29.0507
30.2805
32.3329
35.0642
38.3104
41.9181
45.7578
49.7216
53.7159
57.6552
61.4604
65.0654
68.4261
71.5313
74.4093
77.1271
79.7814
82.4798
85.3163
88.3427
91.542
94.8093
97.9446
100.661
102.612
103.432
102.787
100.429
96.2394
90.2531
82.6652
73.8088
64.1158
54.0671
44.143
34.782
26.3534
19.1428
13.3461
9.06739
6.31378
4.99031
4.89723
5.73853
7.14844
8.73827
10.1588
11.165
11.6659
11.7426
11.6234
11.6191
12.0314
13.058
14.7226
16.8514
19.1046
21.0584
22.3136
22.6034
21.8678
20.2747
18.1821
16.0507
14.3332
13.3691
13.3125
14.1101
15.5304
17.2342
18.8626
20.1211
20.8374
20.9837
20.6623
20.0645
19.4154
18.9222
18.7355
18.9313
19.5116
20.4196
21.561
22.8241
24.0935
25.2569
26.2055
26.8354
27.0515
26.7799
25.987
24.7014
23.0305
21.1637
19.3568
17.8943
17.0368
16.9639
17.7284
19.2354
21.2552
23.4689
25.5353
27.1639
28.1702
28.5024
28.2298
27.5023
26.4933
25.3488
24.1582
22.9547
21.7424
20.5365
19.3963
18.4361
17.8067
17.6519
18.0554
19
20.3545
21.8978
23.3731
24.5547
25.3056
25.6031
25.5261
25.2063
24.7641
24.254
23.6415
22.8251
21.6965
20.219
18.4929
16.7798
15.4671
14.9756
15.633
17.5493
20.5371
24.1052
27.538
30.0457
30.9474
29.8392
26.6998
21.9034
16.1341
10.2257
4.97008
0.946187
-1.58447
-2.69175
-2.7023
-2.06558
-1.20589
-0.408359
0.226518
0.749867
1.27143
1.84742
2.39891
2.70094
2.45719
1.44084
-0.349357
-2.58489
-4.61554
-5.61793
-4.8636
-2.03379
2.52726
7.73188
11.9159
13.2567
10.3593
2.85298
-8.19413
-20.2132
-29.5125
-32.0596
-24.5041
-5.17908
25.2023
63.3863
104.048
140.823
167.655
180.146
176.536
158.082
128.72
94.1198
60.3739
32.6707
14.2776
6.06607
6.6494
13.0391
21.5967
29.0054
33.0119
32.7818
28.8378
22.6641
16.1388
10.9741
8.30968
8.53623
11.3463
15.9494
21.3566
26.6431
31.1279
34.4478
36.5397
37.5662
37.8234
37.6585
37.4114
37.3784
37.7904
38.7974
40.459
42.7423
45.5345
48.6714
51.9798
55.3212
58.6254
61.9002
65.2141
68.6567
72.2898
76.1089
80.0281
83.8952
87.5343
90.7984
93.6156
96.0086
98.0798
99.9634
101.758
103.462
104.931
105.877
105.905
104.594
101.585
96.668
89.8467
81.3536
71.6274
61.2504
50.8631
41.0743
32.3834
25.1276
19.461
15.3645
12.6799
11.1604
10.5238
10.5004
10.8661
11.457
12.1657
12.9245
13.6818
14.3835
14.9654
15.3621
15.5292
15.4724
15.2696
15.0753
15.0982
15.5531
16.5961
18.2629
20.4303
22.8184
25.0406
26.6932
27.4626
27.2203
26.0746
24.3589
22.5554
21.1713
20.6012
21.0161
22.3137
24.1457
26.0181
27.4338
28.0367
27.7132
26.6205
25.1344
23.7324
22.8497
22.7537
23.4736
24.8062
26.3918
27.8339
28.821
29.2119
29.0586
28.5626
27.9835
27.5346
27.3017
27.214
27.0761
26.6489
25.7509
24.3436
22.5734
20.7522
19.2841
18.5591
18.8455
20.2126
22.5044
25.37
28.3397
30.927
32.727
33.4921
33.1689
31.8932
29.9512
27.7172
25.5836
23.8952
22.8976
22.7044
23.2871
24.4858
26.0398
27.6337
28.9506
29.7267
29.7943
29.1083
27.7493
25.9037
23.8265
21.7954
20.0652
18.8337
18.2222
18.2709
18.9462
20.154
21.753
23.5671
25.3962
27.0296
28.265
28.9344
28.9343
28.2533
26.9884
25.3412
23.5904
22.0427
20.9717
20.5601
20.8599
21.7831
23.1263
24.6235
26.0128
27.0971
27.7836
28.0894
28.1184
28.0165
27.927
27.9599
28.1879
28.6641
29.4498
30.6302
32.3027
34.5295
37.2701
40.3182
43.2804
45.6247
46.8029
46.4255
44.4312
41.1856
37.4472
34.1786
32.231
31.9893
33.0979
34.3905
34.1009
30.3487
21.8008
8.32415
-8.58497
-25.78
-38.9375
-43.4707
-35.6882
-13.9004
20.8431
64.6283
111.258
153.441
184.324
198.977
195.471
175.266
142.805
104.448
67.0138
36.3112
16.0199
7.16561
8.26653
16.0444
26.4601
35.7752
41.3699
42.1488
38.4969
31.8747
24.2228
17.3662
12.5773
10.3794
10.5918
12.5506
15.4033
18.3783
20.9618
22.9551
24.4285
25.6131
26.7778
28.1317
29.7734
31.6874
33.7788
35.9246
38.0271
40.0531
42.053
44.1568
46.5471
49.4148
52.9054
57.067
61.814
66.9204
72.0486
76.8141
80.8738
84.0151
86.2226
87.6965
88.8145
90.0377
91.7838
94.2978
97.5568
101.236
104.746
107.342
108.272
106.925
102.961
96.3723
87.4848
76.89
65.3415
53.6362
42.5092
32.56
24.2155
17.7258
13.1792
10.5256
9.59785
10.1292
11.7699
14.1103
16.7133
19.1586
21.0923
22.271
22.5922
22.0987
20.9591
19.4251
17.7779
16.2751
15.1106
14.3924
14.1421
14.3102
14.8026
15.5084
16.3243
17.1709
18.0005
18.7956
19.5614
20.3124
21.058
21.7882
22.4636
23.0148
23.3518
23.3841
23.049
22.3393
21.323
20.1464
19.0142
18.1509
17.7475
17.9095
18.6189
19.724
20.9614
22.01
22.5629
22.4022
21.4575
19.8318
17.7885
15.7
13.9698
12.9445
12.8367
13.6761
15.2997
17.3836
19.5105
21.2575
22.2853
22.4099
21.6395
20.1702
18.3396
16.5493
15.1755
14.4863
14.5873
15.4061
16.7207
18.221
19.589
20.5757
21.0543
21.0393
20.667
20.1452
19.69
19.4649
19.5412
19.8857
20.3792
20.8541
21.1428
21.1201
20.7321
20.0066
19.0443
17.998
17.043
16.3465
16.0393
16.1922
16.8007
17.7801
18.9733
20.1736
21.161
21.7463
21.8148
21.3568
20.4765
19.3722
18.2926
17.4762
17.0937
17.2062
17.7548
18.5828
19.4845
20.2651
20.7916
21.0207
20.994
20.8067
20.5623
20.3352
20.1566
20.032
19.9857
20.1116
20.6043
21.7459
23.8387
27.0896
31.4814
36.6741
41.986
46.4843
49.186
49.3266
46.6235
41.4422
34.7894
28.0964
22.8253
19.9932
19.7607
21.2343
22.5929
21.5581
16.1196
5.32682
-10.0942
-27.5258
-42.7797
-50.9437
-47.5823
-29.9948
1.81811
44.7767
93.0903
139.33
175.972
197.026
199.355
183.332
152.686
113.577
73.1654
38.0367
12.8796
-0.278526
-2.14357
4.41478
15.3602
26.6154
35.0175
38.8908
38.1493
33.9835
28.2828
22.9925
19.5853
18.7643
20.4305
23.8677
28.0506
31.9686
34.8771
36.4273
36.6729
35.9806
34.8926
33.9848
33.7535
34.544
36.5211
39.6716
43.8288
48.7097
53.9606
59.2081
64.1112
68.4094
71.9585
74.7464
76.8858
78.5829
80.0925
81.666
83.5082
85.7484
88.4312
91.5238
94.9336
98.5276
102.147
105.615
108.735
111.29
113.039
113.727
113.094
110.902
106.962
101.169
93.5285
84.1851
73.4403
61.7523
49.7178
38.028
27.4004
18.49
11.7942
7.56648
5.76212
6.03012
7.76219
10.1942
12.5432
14.1526
14.6133
13.8326
12.036
9.69864
7.42716
5.81767
5.32604
6.17891
8.34332
11.5564
15.4016
19.4072
23.142
26.2843
28.6563
30.2202
31.0492
31.2864
31.1049
30.678
30.1621
29.6876
29.3538
29.2231
29.3143
29.5982
30.0015
30.4216
30.7519
30.9133
30.8808
30.6964
30.461
30.3065
30.3528
30.6647
31.2211
31.9086
32.543
32.9134
32.8397
32.2243
31.0869
29.5694
27.9112
26.3984
25.3013
24.8122
25.0002
25.7914
26.9804
28.2695
29.3299
29.8705
29.702
28.7809
27.2245
25.2906
23.3257
21.6912
20.6837
20.4675
21.0368
22.2168
23.7063
25.1495
26.2223
26.7077
26.5436
25.8287
24.7871
23.7008
22.8319
22.3538
22.3128
22.6269
23.1222
23.5924
23.8623
23.8363
23.5184
22.9985
22.414
21.8995
21.5433
21.3641
21.3145
21.307
21.2523
21.0936
20.8245
20.4842
20.1335
19.8209
19.5543
19.2913
18.9533
18.4601
17.7741
16.9373
16.0848
15.4273
15.2029
15.6101
16.7409
18.5345
20.7689
23.0974
25.1256
26.5136
27.0773
26.8635
26.1715
25.5099
25.4864
26.6507
29.3245
33.4647
38.6048
43.9079
48.3368
50.9133
51.0035
48.5443
44.1278
38.8883
34.1913
31.191
30.3803
31.2852
32.4405
31.7103
26.9207
16.6558
0.989536
-18.0938
-36.7824
-50.0869
-52.9565
-41.6062
-14.7028
25.9356
75.372
126.368
170.827
201.523
213.68
206.006
180.901
143.824
101.97
62.6239
31.6184
12.256
4.93137
7.4733
16.0459
26.3151
34.5529
38.4116
37.2206
31.8113
23.9952
15.8974
9.34557
5.46574
4.54856
6.16266
9.42924
13.3468
17.0666
20.058
22.1487
23.4637
24.3091
25.0471
25.998
27.3838
29.3117
31.7855
34.7297
38.0157
41.4856
44.9735
48.3267
51.4273
54.2124
56.688
58.9323
61.086
63.3285
65.8469
68.8017
72.2985
76.3703
80.9709
85.9812
91.2213
96.4654
101.456
105.915
109.55
112.068
113.186
112.656
110.289
105.995
99.8076
91.9052
82.6146
72.3878
61.7588
51.2829
41.4692
32.72
25.289
19.2656
14.5893
11.0879
8.52963
6.67738
5.33144
4.35389
3.67174
3.26238
3.12908
3.27549
3.68677
4.32185
5.11683
5.99662
6.88979
7.74203
8.52475
9.2375
9.9045
10.5665
11.2697
12.0528
12.9349
13.9051
14.9175
15.8941
16.7372
17.3501
17.663
17.6578
17.3819
16.9466
16.5066
16.223
16.2206
16.5513
17.1759
17.9724
18.7701
19.3999
19.7471
19.7876
19.5954
19.3187
19.1299
19.1665
19.4827
20.0291
20.6681
21.2212
21.534
21.5341
21.2647
20.8776
20.588
20.6026
21.0459
21.9073
23.0293
24.1423
24.9368
25.1524
24.6563
23.487
21.8503
20.0672
18.4911
17.4177
17.0145
17.2885
18.1009
19.2186
20.3858
21.3928
22.1203
22.5504
22.7446
22.8025
22.8176
22.8477
22.9081
22.988
23.0769
23.1888
23.3675
23.6704
24.1325
24.7268
25.3386
25.7695
25.7776
25.1458
23.7609
21.6746
19.1252
16.5049
14.2762
12.8581
12.5133
13.2709
14.9099
17.0111
19.0657
20.6073
21.3328
21.1744
20.3057
19.0835
17.9468
17.3078
17.4666
18.5711
20.6227
23.5112
27.0541
31.0162
35.1046
38.9504
42.1068
44.0915
44.4879
43.0893
40.0365
35.8859
31.544
28.0468
26.2157
26.2856
27.6376
28.7719
27.5972
22.0232
10.7272
-6.12147
-26.4291
-46.2394
-60.3721
-63.5498
-51.7648
-23.528
19.3668
71.8264
126.267
174.098
207.534
221.295
213.741
187.181
147.257
101.601
58.1029
23.246
0.904667
-8.13792
-5.9041
3.6769
15.9845
26.8946
33.6468
35.2219
32.2157
26.3296
19.6824
14.1588
10.9614
10.4458
12.224
15.4495
19.1647
22.5981
25.3372
27.3549
28.9146
30.4075
32.1853
34.4395
37.1543
40.1349
43.0923
45.7524
47.9572
49.7279
51.2747
52.9484
55.1433
58.1757
62.1691
66.9808
72.1997
77.2286
81.4424
84.3857
85.9539
86.4944
86.7783
87.823
90.5948
95.6633
102.909
111.385
119.402
124.843
125.643
120.324
108.423
90.6979
69.0377
46.0873
24.6843
7.25462
-4.67358
-10.7171
-11.5952
-8.8305
-4.29626
0.257065
3.56908
5.05076
4.76275
3.23363
1.19897
-0.650556
-1.84461
-2.20223
-1.80339
-0.899082
0.195323
1.18761
1.85979
2.08497
1.82405
1.11814
0.0850245
-1.08219
-2.12407
-2.74221
-2.649
-1.63314
0.376049
3.26698
6.74509
10.38
13.693
16.264
17.8288
18.3404
17.9758
17.0872
16.1098
15.4523
15.3978
16.0408
17.2742
18.8263
20.335
21.4401
21.8699
21.5026
20.3937
18.7634
16.9521
15.3528
14.3343
14.1674
14.9666
16.657
18.9738
21.4967
23.7186
25.1382
25.3632
24.2022
21.7248
18.2717
14.4076
10.8197
8.18291
7.01793
7.57567
9.77665
13.2209
17.268
21.1709
24.2309
25.9407
26.0821
24.7579
22.3539
19.4423
16.6508
14.5287
13.4378
13.4912
14.5488
16.2671
18.1905
19.86
20.9185
21.1881
20.7043
19.7007
18.5469
17.6543
17.3717
17.8936
19.2059
21.0825
23.1356
24.9094
25.9951
26.1381
25.311
23.7316
21.8209
20.1108
19.122
19.243
20.6363
23.1964
26.566
30.2094
33.5279
35.9923
37.2681
37.3041
36.3652
34.994
33.9039
33.8169
35.2804
38.5049
43.2716
48.9442
54.5992
59.2511
62.1168
62.8386
61.5869
58.9911
55.9001
53.0361
50.6563
48.355
45.1104
39.6112
30.7984
18.4684
3.73055
-10.8774
-21.7283
-24.8815
-17.1283
2.96745
34.3476
73.3085
114.03
149.705
174.003
182.512
173.759
149.549
114.532
75.1007
37.9357
8.56179
-9.7123
-16.2388
-12.8028
-2.8498
9.57182
20.8437
28.5253
31.6661
30.6779
26.8819
21.9222
17.2384
13.7361
11.7079
10.9691
11.109
11.7455
12.6891
13.9751
15.7797
18.2745
21.4918
25.2576
29.2178
32.9434
36.0735
38.4388
40.1231
41.4397
42.8329
44.7385
47.4512
51.0391
55.3335
59.9913
64.6088
68.8486
72.5386
75.7156
78.6002
81.5171
84.7851
88.6133
93.0333
97.8851
102.857
107.561
111.623
114.752
116.775
117.624
117.298
115.801
113.097
109.094
103.662
96.693
88.1766
78.266
67.3175
55.8811
44.6406
34.3132
25.5291
18.7199
14.0416
11.3517
10.2471
10.1555
10.4608
10.6344
10.3434
9.51146
8.31761
7.13443
6.41976
6.58787
7.89136
10.3428
13.6954
17.4887
21.1468
24.1058
25.9383
26.4436
25.6827
23.9513
21.6996
19.4231
17.552
16.3683
15.9682
16.2729
17.0813
18.1424
19.2265
20.1762
20.9257
21.4901
21.9322
22.3234
22.7096
23.0943
23.4396
23.6824
23.7566
23.6135
23.2332
22.624
21.8138
20.8359
19.719
18.4824
17.1418
15.7221
14.273
12.8794
11.6616
10.76
10.3054
10.38
10.9799
11.9921
13.1958
14.2964
14.987
15.0278
14.3214
12.9621
11.2406
9.59402
8.51082
8.40942
9.52413
11.8308
15.0361
18.6378
22.0411
24.702
26.2556
26.5967
25.8893
24.509
22.9383
21.6495
21.0109
21.2385
22.3973
24.4361
27.2303
30.6063
34.3374
38.119
41.5496
44.1488
45.4334
45.0459
42.9019
39.2975
34.9164
30.6986
27.5789
26.1569
26.4055
27.5346
28.1009
26.3839
20.9592
11.316
-1.67949
-15.6596
-27.0756
-31.9447
-26.8681
-10.0601
17.9085
53.897
92.6278
127.703
152.978
163.948
158.791
138.792
108.027
72.4046
38.3108
11.2055
-5.46723
-10.8132
-6.37302
4.55425
17.9224
29.991
38.1487
41.3277
39.9626
35.5752
30.1555
25.538
22.9416
22.7677
24.6612
27.7684
31.0795
33.7448
35.2824
35.6428
35.1442
34.3251
33.7711
33.9666
35.203
37.549
40.8739
44.9046
49.2952
53.6959
57.8116
61.4458
64.5278
67.1192
69.398
71.6203
74.0643
76.9686
80.4776
84.6106
89.2624
94.2362
99.2981
104.235
108.898
113.208
117.136
120.642
123.62
125.849
126.987
126.608
124.288
119.707
112.752
103.583
92.6421
80.6057
68.2796
56.4688
45.8494
36.8737
29.7275
24.3461
20.4789
17.7821
15.9122
14.5984
13.6766
13.0831
12.8172
12.8883
13.269
13.8687
14.5376
15.098
15.393
15.3344
14.9358
14.3157
13.6699
13.2181
13.1399
13.518
14.3065
15.3331
16.3377
17.0376
17.2015
16.7135
15.608
14.0668
12.378
10.8671
9.81927
9.41328
9.68394
10.5231
11.7174
13.0118
14.18
15.0816
15.6911
16.0899
16.4256
16.8516
17.4661
18.27
19.1575
19.943
20.4181
20.4193
19.8872
18.8962
17.6436
16.3995
15.4307
14.9217
14.9161
15.3
15.8329
16.219
16.1993
15.6363
14.5652
13.1944
11.8549
10.9113
10.6608
11.2474
12.6184
14.5314
16.6112
18.4396
19.6544
20.034
19.5496
18.3749
16.8553
15.4426
14.6063
14.7357
16.0469
18.5114
21.8264
25.4414
28.6516
30.7514
31.2207
29.8972
27.0772
23.492
20.1375
17.9769
17.5878
18.8617
20.8738
22.0102
20.3681
14.3599
3.36659
-11.7633
-28.5564
-43.2155
-51.3696
-49.1252
-34.1605
-6.55974
30.8716
72.9492
113.072
144.596
162.283
163.463
148.611
121.194
86.8261
51.973
22.5191
2.5699
-6.24503
-4.83549
3.87795
15.8963
27.2067
34.7051
36.769
33.3905
25.9029
16.4295
7.23861
0.178458
-3.68222
-4.15599
-1.80514
2.34557
7.14922
11.635
15.199
17.6628
19.2139
20.2682
21.3057
22.7268
24.7595
27.4316
30.5985
34.0115
37.399
40.5402
43.3157
45.7275
47.8907
50.0035
52.3054
55.0323
58.3754
62.4504
67.2769
72.7733
78.7655
85.0096
91.2256
97.1355
102.496
107.119
110.869
113.642
115.328
115.779
114.789
112.109
107.498
100.806
92.0592
81.5379
69.7962
57.6253
45.9494
35.6753
27.5297
21.9234
18.8784
18.0365
18.7498
20.2291
21.7138
22.6224
22.6483
21.7834
20.27
18.4992
16.8876
15.7632
15.2895
15.4402
16.0273
16.7681
17.3721
17.6234
17.4379
16.8837
16.1604
15.5444
15.3141
15.6741
16.6974
18.299
20.2502
22.2295
23.8991
24.9884
25.3633
25.0624
24.2898
23.3635
22.6334
22.3867
22.7688
23.7388
25.0754
26.4311
27.4237
27.7387
27.2168
25.901
24.0304
21.9813
20.1718
18.955
18.5324
18.9084
19.9
21.1959
22.447
23.3619
23.7776
23.6886
23.2253
22.5942
21.9992
21.5721
21.3344
21.2025
21.0335
20.6942
20.1286
19.3993
18.6856
18.2376
18.2977
19.015
20.38
22.2025
24.1427
25.79
26.7699
26.8477
26.0021
24.4452
22.5824
20.92
19.9432
19.9942
21.1819
23.3453
26.0833
28.8459
31.0682
32.3177
32.4191
31.5224
30.0934
28.8174
28.4332
29.5321
32.3739
36.7734
42.1
47.4053
51.6573
54.0222
54.111
52.1081
48.722
44.955
41.745
39.589
38.2818
36.883
33.9683
28.127
18.5781
5.71431
-8.62615
-21.3021
-28.456
-26.4384
-12.8449
12.624
47.7461
87.9691
127.214
159.116
178.413
182.109
170.132
145.296
112.598
78.0348
47.2552
24.3895
11.337
7.64822
10.9766
17.9245
25.024
29.5851
30.2153
26.923
20.8458
13.7358
7.38083
3.12611
1.60591
2.71633
5.78812
9.87139
14.0311
17.5708
20.1413
21.731
22.5724
23.0114
23.3867
23.9516
24.8493
26.1324
27.808
29.8834
32.394
35.4033
38.9777
43.1444
47.8518
52.9466
58.1807
63.2509
67.8658
71.8215
75.066
77.7303
80.1105
82.6003
85.5862
89.3308
93.8759
98.9944
104.207
108.867
112.281
113.855
113.206
110.226
105.081
98.1457
89.9103
80.8785
71.4919
62.0964
52.9511
44.2654
36.2386
29.0819
23.0079
18.1904
14.7109
12.5153
11.4006
11.0459
11.0799
11.1681
11.0919
10.7929
10.3673
10.0123
9.94091
10.2949
11.0839
12.1737
13.3253
14.2744
14.8221
14.9068
14.6312
14.2342
14.0151
14.2346
15.0245
16.3375
17.9532
19.5426
20.7691
21.3967
21.3695
20.835
20.1047
19.5594
19.5303
20.1911
21.4961
23.1837
24.8478
26.0541
26.4691
25.962
24.6487
22.865
21.0771
19.7556
19.2494
19.6975
21.0004
22.8594
24.8681
26.6296
27.8621
28.4663
28.5353
28.3088
28.0865
28.1284
28.5711
29.3833
30.3728
31.2417
31.6746
31.4367
30.4526
28.8474
26.9346
25.1529
23.9655
23.7455
24.6762
26.6928
29.4838
32.5536
35.3347
37.3216
38.1915
37.8813
36.5967
34.7522
32.8574
31.381
30.6298
30.6767
31.3566
32.3275
33.1777
33.5453
33.2176
32.1819
30.6202
28.8529
27.2542
26.1623
25.8101
26.2869
27.5351
29.3736
31.5366
33.7193
35.6215
36.9899
37.6571
37.5732
36.8263
35.6404
34.3444
33.3117
32.8805
33.2742
34.5472
36.5759
39.1024
41.8199
44.4709
46.9224
49.1867
51.3771
53.6126
55.9105
58.1171
59.9158
60.9257
60.8633
59.7067
57.786
55.7386
54.3134
54.0644
55.0357
56.5624
57.3001
55.5333
49.7194
39.1304
24.393
7.7196
-7.30685
-16.4145
-15.6617
-2.54496
23.1146
58.7821
99.4787
138.693
169.74
187.227
188.264
173.093
144.981
109.404
72.7615
40.9361
18.0897
5.9649
3.83208
9.03126
17.9098
26.8682
33.2296
35.7285
34.5439
30.9378
26.6615
23.334
21.9778
22.8197
25.3739
28.7337
31.9484
34.352
35.7455
36.3941
36.8653
37.7812
39.5779
42.3527
45.8407
49.5186
52.7916
55.196
56.5515
57.0192
57.0523
57.2629
58.2499
60.4426
64.0014
68.8
74.4829
80.5746
86.6029
92.2039
97.1819
101.519
105.342
108.857
112.279
115.767
119.368
122.99
126.388
129.183
130.903
131.056
129.218
125.13
118.784
110.457
100.697
90.2317
79.8375
70.1788
61.6747
54.4244
48.2184
42.6323
37.179
31.4724
25.3547
18.9501
12.6294
6.89967
2.25671
-0.956111
-2.63869
-2.95277
-2.26826
-1.06
0.210291
1.19181
1.6981
1.70941
1.3335
0.745183
0.126778
-0.374575
-0.6666
-0.712443
-0.521422
-0.139274
0.357437
0.864278
1.25539
1.39997
1.19163
0.586539
-0.359961
-1.47205
-2.45979
-2.95867
-2.59849
-1.08772
1.70675
5.70598
10.6076
15.9235
21.0599
25.4247
28.5371
30.1153
30.1236
28.7687
26.447
23.6587
20.9069
18.6057
17.0169
16.2248
16.1523
16.6077
17.3482
18.1424
18.8173
19.2807
19.5177
19.5685
19.4961
19.3576
19.1858
18.9864
18.7486
18.4622
18.1346
17.7994
17.5147
17.3493
17.365
17.5985
18.0502
18.6843
19.4378
20.2363
21.0102
21.7057
22.2873
22.7319
23.0187
23.1186
22.9913
22.592
21.8867
20.8738
19.6031
18.1853
16.7853
15.5989
14.8152
14.5747
14.9328
15.8407
17.1498
18.6393
20.0626
21.1993
21.8998
22.1106
21.8751
21.3102
20.5672
19.7908
19.0876
18.5127
18.0766
17.7671
17.5743
17.5097
17.6093
17.9206
18.4774
19.2734
20.2455
21.2743
22.2043
22.8783
23.1761
23.0452
22.5168
21.7004
20.762
19.8928
19.2756
19.0573
19.3312
20.1265
21.4054
23.063
24.9337
26.8051
28.4466
29.6541
30.3067
30.4244
30.206
30.0267
30.3804
31.7653
34.5318
38.7322
44.0209
49.6516
54.5975
57.7845
58.3885
56.1127
51.3518
45.1659
39.0367
34.4457
32.3816
32.9291
35.092
36.9536
36.1832
30.7876
19.9059
4.40124
-12.9708
-27.9402
-35.6171
-31.7133
-13.7817
17.8739
59.9043
106.369
149.872
183.123
200.537
199.461
180.731
148.407
108.771
68.8773
35.0094
11.4402
-0.2289
-1.04495
5.92805
16.6215
27.0568
34.2414
36.6725
34.3897
28.6406
21.3167
14.3466
9.2105
6.67336
6.75729
8.90409
12.2415
15.8601
19.0302
21.321
22.6233
23.097
23.0787
22.9787
23.1899
24.0173
25.6336
28.0593
31.1687
34.7209
38.4135
41.9507
45.1127
47.8098
50.1056
52.2008
54.3784
56.9246
60.0469
63.8119
68.1241
72.751
77.3886
81.7474
85.6317
88.9878
91.9015
94.5459
97.0908
99.6019
101.96
103.831
104.696
103.95
101.039
95.6069
87.6122
77.3874
65.6147
53.224
41.2348
30.5752
21.9223
15.5993
11.5513
9.4027
8.57875
8.45744
8.51377
8.42089
8.0862
7.61882
7.24333
7.18847
7.58494
8.40262
9.4446
10.399
10.9323
10.7949
9.90859
8.40721
6.61737
4.98293
3.95233
3.85914
4.82868
6.73659
9.23132
11.8155
13.9651
15.2557
15.4641
14.6179
12.9844
11.0003
9.16255
7.90777
7.51068
8.02507
9.28046
10.9329
12.5558
13.7468
14.225
13.8945
12.86
11.3933
9.85815
8.61665
7.93798
7.93489
8.54217
9.54196
10.6278
11.4893
11.8942
11.7465
11.1047
10.1587
9.17165
8.40716
8.06038
8.21344
8.82506
9.75422
10.8081
11.798
12.5861
13.1111
13.3886
13.4888
13.5036
13.5143
13.5707
13.6864
13.8482
14.0349
14.2345
14.4545
14.7209
15.0672
15.5184
16.0764
16.7139
17.3776
18.0006
18.5206
18.8956
19.1157
19.2042
19.2109
19.199
19.2298
19.3502
19.5849
19.9358
20.3849
20.9023
21.4525
22.0004
22.5134
22.9615
23.3154
23.5445
23.6168
23.5024
23.1795
22.6452
21.9273
21.0953
20.2648
19.5941
19.2663
19.4588
20.3025
21.839
23.9865
26.5275
29.1266
31.3826
32.9076
33.4181
32.8146
31.2269
29.0077
26.6688
24.7721
23.8029
24.058
25.5842
28.1852
31.4968
35.1057
38.6729
42.0171
45.1266
48.096
51.0092
53.8202
56.2851
57.9883
58.4703
57.42
54.8633
51.2597
47.4453
44.4023
42.907
43.1652
44.5748
45.7376
44.777
39.9174
30.1809
15.9855
-0.574105
-15.9182
-25.6699
-25.7111
-13.3449
11.76
47.1384
87.7837
127.077
158.189
175.602
176.366
160.756
132.155
96.2114
59.4932
28.003
5.93077
-5.05771
-5.86229
0.627094
10.5119
19.9754
26.1882
27.8217
25.0944
19.411
12.759
7.06537
3.69451
3.1983
5.33847
9.321
14.1334
18.8674
22.9366
26.1488
28.6421
30.7336
32.747
34.876
37.1228
39.3179
41.2035
42.5447
43.2312
43.3363
43.1187
42.9681
43.3119
44.5102
46.7688
50.0928
54.2948
59.0525
64.0013
68.8337
73.3768
77.626
81.7231
85.8847
90.3021
95.0427
99.9825
104.792
108.984
112.003
113.348
112.678
109.881
105.092
98.6488
91.0117
82.6602
74.0078
65.3473
56.8423
48.5583
40.5213
32.7788
25.4459
18.7202
12.8617
8.14438
4.79311
2.92361
2.50219
3.33654
5.10149
7.39481
9.81098
12.0159
13.8049
15.1282
16.0784
16.8393
17.6114
18.5324
19.6175
20.7377
21.6471
22.0539
21.7172
20.5397
18.6283
16.2988
14.0177
12.2943
11.5502
12.0048
13.6095
16.0525
18.8349
21.3966
23.2569
24.1306
23.9867
23.0353
21.6521
20.2628
19.2265
18.7492
18.8526
19.3994
20.1624
20.9109
21.4839
21.8281
21.9915
22.0788
22.1897
22.3615
22.5409
22.5923
22.3417
21.6402
20.4257
18.7609
16.8341
14.9223
13.3247
12.2886
11.9471
12.2865
13.1528
14.2926
15.4169
16.2691
16.679
16.5908
16.0604
15.2261
14.2648
13.3458
12.5963
12.0836
11.8184
11.7707
11.8944
12.1488
12.5109
12.9769
13.551
14.2293
14.9832
15.7492
16.4312
16.9139
17.0875
16.8768
16.2666
15.3177
14.1658
13.0037
12.0468
11.4914
11.4731
12.0355
13.1185
14.5678
16.1655
17.676
18.8955
19.6947
20.0458
20.0243
19.7873
19.5316
19.4426
19.647
20.1847
21.0086
22.0167
23.1084
24.2487
25.516
27.1115
29.3155
32.3922
36.4675
41.4157
46.8036
51.9265
55.9486
58.1212
58.0217
55.7304
51.8714
47.4738
43.6681
41.2945
40.5475
40.7917
40.6504
38.3891
32.5192
22.4546
9.00922
-5.46023
-17.378
-22.7155
-18.035
-1.53833
26.1866
61.9665
100.501
135.407
160.603
171.688
166.949
147.742
118.133
83.9111
51.242
25.3027
9.25242
3.76649
7.20433
16.3091
27.2056
36.4089
41.5853
41.9047
37.9536
31.3002
23.8828
17.4147
12.965
10.7971
10.465
11.0936
11.7309
11.659
10.5832
8.66369
6.40684
4.46966
3.44532
3.69411
5.26185
7.89792
11.1566
14.544
17.6656
20.3322
22.5976
24.7242
27.0876
30.0554
33.8741
38.5977
44.0777
50.0156
56.0568
61.8976
67.3702
72.4776
77.3702
82.271
87.3741
92.7503
98.2881
103.689
108.517
112.284
114.552
115.012
113.529
110.148
105.057
98.5389
90.9209
82.5416
73.7377
64.8441
56.1975
48.128
40.936
34.8545
30.0094
26.3938
23.8675
22.1882
21.0679
20.2397
19.5143
18.8106
18.1512
17.6242
17.3278
17.3139
17.5516
17.9223
18.2466
18.3337
18.0366
17.2946
16.1497
14.7331
13.2267
11.8136
10.6326
9.75234
9.16838
8.82408
8.64398
8.56717
8.56843
8.66035
8.87684
9.24543
9.7603
10.3672
10.9679
11.4449
11.6985
11.6856
11.4458
11.1041
10.848
10.8825
11.3741
12.4017
13.9263
15.7907
17.7503
19.5257
20.8653
21.5994
21.6738
21.1545
20.2044
19.0415
17.8906
16.9417
16.3236
16.0965
16.2589
16.762
17.5241
18.4395
19.3821
20.2098
20.7734
20.9375
20.6117
19.7867
18.5617
17.1518
15.865
15.0471
15.0036
15.9172
17.7835
20.386
23.3219
26.0772
28.1359
29.0954
28.7603
27.1888
24.6801
21.7066
18.809
16.4818
15.0783
14.7553
15.4675
17.005
19.0571
21.2827
23.3672
25.0586
26.1818
26.6423
26.4304
25.6323
24.4482
23.201
22.3199
22.2819
23.5078
26.2308
30.3723
35.473
40.7204
45.0927
47.5994
47.5637
44.8583
40.0088
34.1027
28.5008
24.4171
22.4887
22.4874
23.2978
23.2175
20.5333
14.2202
4.54817
-6.6286
-16.0492
-19.7152
-13.918
3.63418
32.9148
71.1903
113.31
152.654
182.535
197.7
195.544
176.728
145.015
106.392
67.7069
35.1676
13.0939
3.19822
4.53358
14.0549
27.5906
40.9367
50.792
55.3285
54.3167
48.8522
40.8237
32.3038
25.0289
20.0787
17.7876
17.8564
19.5873
22.1513
24.8147
27.0799
28.7295
29.7906
30.45
30.9537
31.5194
32.2778
33.2507
34.3642
35.4889
36.4927
37.2935
37.8953
38.3965
38.9678
39.8042
41.0645
42.8182
45.02
47.5209
50.1187
52.6312
54.9697
57.1844
59.4609
62.0605
65.2163
69.0114
73.2792
77.559
81.1324
83.1399
82.7589
79.3994
72.8704
63.4685
51.9634
39.4758
27.2727
16.5269
8.09776
2.38432
-0.713488
-1.71926
-1.41131
-0.605606
0.0529396
0.238079
-0.00725299
-0.326719
-0.19347
0.901979
3.27222
6.91164
11.4664
16.303
20.6562
23.8144
25.2936
24.9523
23.0183
20.0226
16.6601
13.615
11.3984
10.2398
10.0572
10.5111
11.1233
11.4258
11.0987
10.0608
8.48953
6.76927
5.38179
4.77212
5.22484
6.78358
9.23355
12.1496
14.9955
17.2471
18.5077
18.5882
17.5342
15.599
13.1743
10.6993
8.57311
7.08932
6.4028
6.52783
7.35884
8.70143
10.3033
11.8813
13.1457
13.8289
13.7225
12.7217
10.8698
8.38578
5.66022
3.20684
1.57214
1.21782
2.40427
5.10775
8.99888
13.4948
17.8768
21.446
23.675
24.3167
23.4394
21.3809
18.6387
15.7284
13.0558
10.8359
9.08155
7.65631
6.37085
5.08558
3.78506
2.59984
1.76993
1.56364
2.17942
3.66281
5.86492
8.45557
10.9876
12.9951
14.0987
14.0932
12.9953
11.0434
8.65087
6.32407
4.56283
3.76331
4.14088
5.68674
8.1661
11.1584
14.1333
16.5479
17.9494
18.0594
16.8253
14.426
11.2294
7.7136
4.36782
1.59703
-0.347608
-1.39855
-1.65786
-1.3473
-0.738969
-0.0863678
0.42658
0.70856
0.755191
0.622422
0.391561
0.138632
-0.0833982
-0.247335
-0.343376
-0.367281
-0.312819
-0.17305
0.0499983
0.332383
0.619635
0.829411
0.868572
0.662389
0.188296
-0.496526
-1.24431
-1.82945
-1.98553
-1.46023
-0.076053
2.2179
5.31686
8.96292
12.7808
16.3407
19.2353
21.1551
21.9456
21.6336
20.4191
18.6322
16.6674
14.907
13.6516
13.0702
13.1802
13.8595
14.8855
15.9924
16.932
17.5262
17.6996
17.488
17.024
16.5043
16.1495
16.1655
16.7138
17.8947
19.7433
22.2333
25.2835
28.7625
32.4891
36.2309
39.706
42.5942
44.5622
45.3052
44.5997
42.3573
38.6671
33.8108
28.2425
22.5281
17.2545
12.9231
9.85179
8.1108
7.50945
7.64315
7.99324
8.05892
7.49011
6.18786
4.3446
2.41083
0.992526
0.702013
1.99774
5.05241
9.6832
15.3629
21.3112
26.6468
30.5638
32.4954
32.225
29.9246
26.1122
21.5404
17.0434
13.3756
11.0748
10.3763
11.1924
13.154
15.7035
18.216
20.1216
21.0073
20.6796
19.1808
16.7607
13.8145
10.802
8.16593
6.26267
5.31722
5.40434
6.45485
8.28119
10.6143
13.1448
15.5619
17.5875
19.0021
19.6633
19.5153
18.5916
17.009
14.9553
12.6704
10.4221
8.4785
7.07724
6.39531
6.52152
7.43655
9.00597
10.9916
13.0841
14.9559
16.3269
17.0305
17.0617
16.5934
15.9486
15.5315
15.7284
16.8042
18.8218
21.6092
24.7874
27.8544
30.3039
31.7455
31.993
31.0943
29.2967
26.9612
24.4543
22.0546
19.9049
18.0222
16.3607
14.898
13.7108
13.0037
13.0738
14.2155
16.5941
20.1315
24.4483
28.8957
32.6807
35.0616
35.5608
34.1329
31.2284
27.7211
24.7024
23.1896
23.8244
26.6536
31.0657
35.9212
39.8538
41.6668
40.7062
37.086
31.6773
25.8355
20.9325
17.8292
16.4694
15.7573
13.8083
8.54817
-1.48889
-16.4009
-34.4622
-52.1726
-64.882
-67.8859
-57.7275
-33.3508
3.24904
47.1113
91.1745
127.743
150.195
154.502
140.152
110.235
70.6844
28.8623
-8.11225
-34.8792
-48.8191
-50.301
-42.1978
-28.8665
-14.9096
-4.05896
1.55006
1.58488
-2.76986
-9.43288
-16.1585
-21.1628
-23.4934
-23.0905
-20.5845
-16.9443
-13.1094
-9.71939
-7.00192
-4.81891
-2.82175
-0.641464
1.9573
5.00444
8.34487
11.7289
14.9293
17.8389
20.516
23.1632
26.0548
29.4371
33.4395
38.0245
42.9924
48.0396
52.8515
57.2018
61.0294
64.4689
67.8254
71.4982
75.8713
81.1986
87.5107
94.5678
101.87
108.728
114.374
118.096
119.366
117.938
113.883
107.579
99.6307
90.7575
81.6661
72.9325
64.9231
57.7673
51.3857
45.5647
40.0558
34.6756
29.3788
24.2881
19.6714
15.8757
13.2329
11.9644
12.1087
13.4921
15.7492
18.3901
20.8955
22.8185
23.8663
23.9452
23.1591
21.7653
20.1018
18.5051
17.2398
16.4545
16.1727
16.3147
16.7406
17.3007
17.8779
18.4123
18.9038
19.3962
19.9495
20.6118
21.3993
22.2896
23.2302
24.1575
25.0196
25.7952
26.5018
27.1909
27.9291
28.7731
29.7426
30.8026
31.8588
32.7706
33.3789
33.5428
33.1766
32.276
30.9267
29.2919
27.5808
26.0054
24.7363
23.8694
23.4101
23.2819
23.3525
23.4735
23.5203
23.4218
23.1727
22.8252
22.4642
22.1724
21.9979
21.9324
21.9075
21.8103
21.515
20.922
19.994
18.7797
17.4179
16.1191
15.1282
14.6756
14.9259
15.9379
17.6415
19.8407
22.2399
24.491
26.2522
27.2478
27.3186
26.4531
24.7944
22.6204
20.2988
18.2246
16.748
16.107
16.3782
17.4582
19.0853
20.9019
22.5472
23.7618
24.4744
24.8418
25.2216
26.0729
27.8039
30.6073
34.3371
38.4767
42.2292
44.7209
45.2704
43.6401
40.1791
35.786
31.6703
28.9606
28.269
29.361
31.068
31.5235
28.7049
21.1583
8.6969
-7.15987
-23.1954
-35.0279
-38.0889
-28.8228
-5.79319
29.6294
73.2298
118.627
158.544
186.359
197.568
190.766
167.911
133.805
94.9369
58.0071
28.4968
9.64413
2.0379
3.87384
11.7394
21.6703
30.1787
34.9988
35.4
32.0569
26.5832
20.909
16.6957
14.9375
15.8213
18.8319
23.0253
27.361
30.9907
33.4346
34.624
34.8292
34.5188
34.2045
34.3127
35.1073
36.6678
38.9102
41.6355
44.5895
47.5215
50.2356
52.629
54.7112
56.6015
58.5
60.6356
63.2014
66.2926
69.8695
73.7577
77.6943
81.4078
84.7098
87.566
90.1171
92.6338
95.4105
98.6247
102.207
105.767
108.614
109.871
108.679
104.425
96.9334
86.5718
74.2186
61.1016
48.5417
37.6679
29.1809
23.2298
19.435
17.0483
15.2014
13.1702
10.5767
7.47249
4.28417
1.64244
0.151906
0.17484
1.69553
4.30492
7.3072
9.9123
11.4536
11.5652
10.2678
7.943
5.2116
2.75583
1.14281
0.697899
1.45793
3.20632
5.56701
8.11969
10.498
12.4453
13.8216
14.5751
14.702
14.2188
13.1614
11.6093
9.71963
7.74726
6.03261
4.94893
4.81914
5.82567
7.94389
10.9247
14.3379
17.6678
20.4362
22.3158
23.2018
23.2193
22.6672
21.9164
21.2954
20.9998
21.05
21.3098
21.5542
21.5613
21.1985
20.4736
19.5377
18.6411
18.0587
18.0098
18.5964
19.7775
21.3824
23.1565
24.823
26.143
26.9593
27.2158
26.9538
26.2904
25.387
24.4169
23.5366
22.8648
22.4687
22.3595
22.4964
22.7996
23.1694
23.51
23.7505
23.8587
23.8428
23.7387
23.5885
23.4157
23.2065
22.905
22.4252
21.6765
20.5958
19.1762
17.4824
15.6499
13.8667
12.3447
11.2867
10.8575
11.1604
12.2222
13.983
16.2942
18.9244
21.5821
23.9589
25.7943
26.9535
27.4985
27.7257
28.1436
29.3782
32.0124
36.3962
42.4813
49.7413
57.2253
63.7539
68.2215
69.9256
68.8159
65.5671
61.424
57.8345
55.9656
56.2522
58.1402
60.1458
60.26
56.6177
48.2451
35.6495
21.0298
7.98193
0.716202
2.95896
16.828
42.0078
75.4924
112.018
145.116
168.545
177.732
170.844
149.217
117.019
80.2466
45.329
17.6968
0.681468
-5.00433
-1.11953
8.82344
20.6119
30.4203
35.6541
35.3673
30.2063
21.9638
12.9166
5.15547
0.0831493
-1.81481
-0.913405
1.82789
5.24598
8.33684
10.5042
11.6468
12.0904
12.4117
13.2219
14.9771
17.8621
21.7662
26.3422
31.1199
35.6351
39.5416
42.6799
45.0939
46.9996
48.7196
50.6033
52.9519
55.9627
59.7027
64.1114
69.0289
74.2392
79.5173
84.668
89.5481
94.0693
98.1803
101.838
104.971
107.457
109.105
109.669
108.872
106.457
102.237
96.1455
88.2751
78.8888
68.4083
57.3743
46.386
36.0278
26.7973
19.0447
12.9352
8.44065
5.36185
3.37785
2.11175
1.20139
0.360697
-0.579383
-1.65765
-2.79793
-3.84756
-4.62908
-4.99248
-4.85634
-4.22953
-3.21036
-1.96593
-0.69846
0.39222
1.14135
1.44118
1.24991
0.589154
-0.466299
-1.80217
-3.27859
-4.74315
-6.04374
-7.04258
-7.63202
-7.75071
-7.39639
-6.63041
-5.5699
-4.36606
-3.17192
-2.10706
-1.22972
-0.525994
0.0780245
0.68279
1.36939
2.15607
2.97316
3.66831
4.04478
3.92412
3.21513
1.96584
0.378318
-1.22422
-2.47351
-3.05657
-2.81102
-1.78509
-0.240415
1.40815
2.70189
3.26713
2.92626
1.75692
0.0801791
-1.62117
-2.83173
-3.14327
-2.36478
-0.571126
1.92314
4.65613
7.14916
9.03682
10.1592
10.591
10.6013
10.5599
10.8182
11.6027
12.9513
14.7088
16.5813
18.2286
19.3676
19.8526
19.7106
19.1235
18.364
17.7088
17.3572
17.3804
17.7174
18.2174
18.7131
19.0987
19.3868
19.7205
20.336
21.4822
23.3227
25.8507
28.8474
31.9045
34.514
36.2072
36.7096
36.0683
34.7063
33.3783
33.0194
34.5142
38.4362
44.8292
53.0996
62.0705
70.2059
75.9678
78.2181
76.5535
71.4613
64.2277
56.594
50.2416
46.2496
44.7015
44.5893
44.0891
41.1653
34.3476
23.4443
9.94611
-3.05973
-11.5086
-11.3915
0.0604211
23.3784
56.3576
94.2518
130.662
158.924
173.646
171.988
154.348
124.259
87.5335
50.8896
20.4145
0.27084
-8.04651
-5.75321
3.83681
16.3641
27.6055
34.4705
35.5802
31.3319
23.5031
14.5605
6.89783
2.21388
1.17388
3.40115
7.75028
12.7446
17.0342
19.7475
20.6558
20.135
18.9648
18.0439
18.1135
19.5653
22.3766
26.1756
30.4016
34.5021
38.104
41.1106
43.7013
46.2446
49.1566
52.7554
57.1581
62.2486
67.7237
73.1974
78.3248
82.9056
86.9325
90.5718
94.084
97.7137
101.584
105.629
109.585
113.038
115.512
116.569
115.89
113.32
108.872
102.689
95.0045
86.0944
76.2579
65.8171
55.1321
44.6135
34.7178
25.914
18.6247
13.1542
9.62414
7.93903
7.79487
8.73415
10.2348
11.8113
13.1007
13.9133
14.2344
14.1808
13.9285
13.6341
13.3737
13.1189
12.7532
12.1224
11.1025
9.66008
7.88917
6.00874
4.32288
3.15258
2.75769
3.26932
4.65048
6.69455
9.0622
11.3476
13.1581
14.1906
14.2862
13.4545
11.8626
9.79441
7.58841
5.57077
3.99589
3.0074
2.6259
2.76411
3.26384
3.94472
4.65211
5.29242
5.84741
6.36425
6.92477
7.60262
8.42087
9.32347
10.1705
10.7618
10.8863
10.385
9.2121
7.47674
5.44872
3.52269
2.1434
1.70696
2.46126
4.43187
7.39546
10.9125
14.4154
17.3333
19.2226
19.8693
19.3351
17.9341
16.1463
14.4911
13.399
13.1151
13.662
14.8689
16.4524
18.1189
19.6538
20.9662
22.0782
23.0653
23.976
24.7615
25.2492
25.1701
24.2367
22.2445
19.1631
15.1838
10.7044
6.25406
2.37646
-0.493756
-2.12825
-2.54968
-2.01386
-0.936538
0.214621
1.03535
1.27998
0.915196
0.120011
-0.769017
-1.35764
-1.31813
-0.508343
0.948484
2.65471
4.01842
4.4181
3.41786
0.97229
-2.45297
-5.90989
-8.17471
-8.10524
-5.0608
0.747678
8.11713
15.0202
19.0961
18.372
12.0262
0.954515
-12.0799
-22.8349
-26.4914
-18.8813
2.27102
36.444
80.0437
126.895
169.428
200.302
214.05
208.338
184.508
147.256
103.546
61.0318
26.4021
4.05118
-4.62574
-1.18778
10.5658
25.7384
39.5829
48.5387
50.8375
46.5943
37.4427
25.88
14.5311
5.52708
0.124612
-1.38846
0.458064
4.62231
9.89974
15.2214
19.8427
23.4074
25.9063
27.5731
28.7599
29.8292
31.0803
32.7159
34.8401
37.4766
40.5963
44.1451
48.0668
52.3193
56.8813
61.7492
66.9231
72.3854
78.0771
83.8798
89.6131
95.0536
99.9749
104.202
107.662
110.419
112.669
114.69
116.761
119.051
121.528
123.909
125.671
126.136
124.618
120.59
113.832
104.528
93.261
80.9234
68.5478
57.1068
47.33
39.5837
33.8419
29.7522
26.7713
24.3315
21.9902
19.5247
16.9511
14.473
12.3818
10.945
10.3177
10.5
11.3488
12.6316
14.0993
15.5515
16.8733
18.0357
19.0648
19.9973
20.8403
21.5549
22.0661
22.2972
22.2124
21.8488
21.326
20.8239
20.5359
20.6119
21.1087
21.9668
23.0211
24.0455
24.8187
25.191
25.1342
24.7558
24.2742
23.9572
24.0426
24.6591
25.7733
27.1776
28.5272
29.42
29.5018
28.5705
26.651
24.0174
21.151
18.6384
17.032
16.7052
17.7425
19.8968
22.6304
25.236
27.0105
27.4371
26.3261
23.8755
20.629
17.3418
14.7869
13.5555
13.907
15.7082
18.4795
21.5324
24.1565
25.8025
26.2091
25.4419
23.8376
21.8788
20.0401
18.6535
17.8315
17.464
17.2821
16.9629
16.2378
14.9737
13.2058
11.1197
8.99474
7.13084
5.77807
5.0866
5.08347
5.67595
6.67679
7.84517
8.93716
9.75885
10.2133
10.3297
10.2641
10.2631
10.5952
11.4646
12.9348
14.8927
17.0732
19.1445
20.8299
22.0165
22.8007
23.4331
24.1639
25.0358
25.7075
25.4044
23.0644
17.6878
8.81826
-2.9882
-15.8839
-26.7945
-31.8994
-27.4743
-10.9156
18.3253
58.1831
104.011
149.274
186.786
210.217
215.505
201.79
171.647
130.517
85.5069
43.8327
11.3271
-8.65063
-15.6515
-11.8652
-1.27016
11.5299
22.459
28.8278
29.7208
25.882
19.2016
11.9985
6.31937
3.43367
3.62762
6.29943
10.2788
14.245
17.1137
18.2911
17.7515
15.9449
13.59
11.4272
10.0064
9.56117
9.99195
10.9462
11.9617
12.6243
12.6957
12.178
11.3029
10.4539
10.0481
10.4117
11.6854
13.7828
16.4129
19.1556
21.5706
23.3048
24.1724
24.1847
23.5257
22.4828
21.3545
20.3634
19.598
18.9979
18.3846
17.5255
16.2119
14.3273
11.8898
9.05695
6.09581
3.32713
1.05933
-0.472494
-1.15002
-0.990947
-0.14286
1.14506
2.56659
3.81259
4.62732
4.85947
4.49953
3.69524
2.73796
2.01709
1.94556
2.86797
4.96981
8.21018
12.2986
16.7281
20.8645
24.0742
25.8637
25.9956
24.5501
21.9142
18.6975
15.5954
13.2335
12.0311
12.1199
13.335
15.2774
17.4268
19.2734
20.4312
20.7059
20.1058
18.7999
17.0427
15.0945
13.1592
11.3585
9.7415
8.32093
7.11672
6.18694
5.63292
5.5751
6.10752
7.24697
8.89534
10.8305
12.7323
14.2402
15.0286
14.8831
13.7547
11.782
9.27083
6.63874
4.33441
2.75141
2.15464
2.63501
4.10061
6.30411
8.89805
11.5041
13.7805
15.4739
16.4473
16.6821
16.2597
15.3294
14.0747
12.6842
11.3314
10.1621
9.28785
8.77887
8.6553
8.87777
9.34134
9.87923
10.2821
10.3344
9.86507
8.80176
7.21646
5.34606
3.57655
2.38517
2.24507
3.50771
6.28801
10.3823
15.2487
20.0695
23.8989
25.8752
25.4551
22.6076
17.9037
12.4521
7.66649
4.89638
5.00546
8.01544
12.9392
17.8948
20.5235
18.6439
10.9891
-2.17976
-18.7903
-35.1457
-46.6041
-48.6309
-37.9808
-13.7017
22.332
65.5418
109.442
146.952
171.907
180.4
171.614
147.933
114.322
77.1417
42.7154
16.0069
-0.273266
-5.95247
-3.06224
4.96613
14.3214
21.7671
25.3023
24.4083
19.8836
13.3796
6.8069
1.78882
-0.705293
-0.485285
1.96245
5.73502
9.83221
13.4402
16.1126
17.8196
18.877
19.7917
21.0785
23.0995
25.966
29.5224
33.4102
37.1888
40.4768
43.0723
45.0191
46.5973
48.2417
50.4104
53.4431
57.4513
62.2756
67.5264
72.6967
77.315
81.092
84.0151
86.3589
88.6041
91.2872
94.8205
99.3362
104.598
110.007
114.71
117.77
118.37
115.994
110.538
102.329
92.0615
80.6474
69.0433
58.0805
48.3419
40.1073
33.3709
27.9192
23.4396
19.6312
16.2868
13.3304
10.8063
8.82907
7.51712
6.92966
7.02883
7.67556
8.6586
9.74489
10.7344
11.5022
12.0154
12.3228
12.5213
12.7124
12.9633
13.283
13.6209
13.8847
13.9722
13.8046
13.3538
12.6544
11.8025
10.9396
10.2302
9.83616
9.89144
10.4814
11.6258
13.2668
15.2654
17.4067
19.4194
21.0081
21.8977
21.8824
20.8681
18.9005
16.1673
12.9741
9.69627
6.71896
4.3771
2.90984
2.4375
2.96285
4.39147
6.56099
9.26885
12.291
15.3907
18.3213
20.8326
22.6882
23.6965
23.7523
22.8766
21.2406
19.1584
17.0446
15.3382
14.4108
14.4809
15.5592
17.442
19.7575
22.0548
23.9116
25.0327
25.3114
24.8386
23.8605
22.6992
21.6636
20.9764
20.7385
20.9363
21.4809
22.2616
23.1868
24.1986
25.2546
26.2917
27.1941
27.7888
27.8864
27.361
26.2473
24.8146
23.5772
23.2143
24.4018
27.5911
32.8011
