25.3656
20.0473
13.4668
7.02996
2.0444
-0.677162
-0.974704
0.664471
3.30894
5.92479
7.63378
7.95456
6.83897
4.75448
2.49851
0.98703
0.87778
2.47156
5.51741
9.29648
12.8052
15.0104
15.2379
13.4866
10.5917
8.0912
7.83597
11.6015
20.5428
34.8932
53.8795
75.8604
98.7029
120.324
139.078
154.062
165.108
172.681
177.592
180.731
182.889
184.523
185.907
187.237
188.694
190.542
193.033
196.406
200.563
205.114
209.318
212.175
212.775
210.565
205.55
198.214
189.28
179.329
168.425
156.071
141.506
124.238
104.753
85.0582
68.5458
59.2028
60.3647
73.3155
96.2852
124.449
150.844
168.135
170.719
156.381
127.03
88.2093
47.4927
12.3557
-11.7405
-22.5808
-21.3051
-11.6492
1.48588
13.6407
21.8142
24.9374
23.6327
19.5379
14.5176
10.0216
6.85736
5.07659
4.26255
3.90005
3.59756
3.1949
2.80042
2.7152
3.24475
4.62287
6.83476
9.60389
12.4155
14.6597
15.7895
15.4765
13.7142
10.8466
7.53072
4.56374
2.66749
2.27462
3.43611
5.86427
8.99461
12.0668
14.4027
15.5267
15.2627
13.7528
11.3723
8.65995
6.16051
4.31674
3.41314
3.52888
4.6105
6.47253
8.93836
11.8762
15.2118
18.8305
22.4853
25.8363
28.3585
29.5097
28.8331
26.2032
21.9182
16.6865
11.5031
7.38136
5.03394
4.71838
6.1959
8.73987
11.5028
13.6989
14.9018
15.1159
14.7335
14.307
14.32
14.9827
16.1159
17.2546
17.8111
17.2442
15.408
12.5638
9.29283
6.3878
4.49272
3.98933
4.86963
6.75714
9.14964
11.6471
14.1617
17.0168
20.783
26.058
33.1322
41.7186
50.9767
59.5882
66.1655
69.6999
69.9215
67.4792
63.762
60.4398
58.9777
60.1774
63.9071
69.208
74.5568
78.3886
79.561
77.6428
72.9282
66.2436
58.746
51.6071
45.7621
41.7336
39.5809
38.8536
38.6947
38.0309
35.9091
31.7867
25.9505
19.7527
15.396
15.4386
21.9314
35.5069
54.836
76.6319
96.2488
108.999
111.497
102.756
84.674
61.5655
38.9116
21.8191
13.6037
15.0326
24.3955
38.2676
52.7359
64.5883
72.1711
75.4025
75.3571
73.6246
71.5655
69.9303
68.8192
67.9508
67.0635
66.1526
65.4849
65.4568
66.2136
67.4798
68.6205
68.8821
67.6646
64.8052
60.7644
56.5379
53.2448
51.7438
52.3191
54.5135
57.3442
59.6216
60.3323
58.9502
55.506
50.5798
44.9438
39.3325
34.1607
29.5506
25.4543
21.8143
18.7855
16.6897
15.9405
16.776
19.1078
22.4478
25.8974
28.4777
29.4075
28.3944
25.8121
22.5641
19.845
18.8389
20.4363
24.9465
31.9472
40.4587
49.2052
56.8958
62.499
65.4928
65.9051
64.2456
61.2895
57.8537
54.4887
51.4195
48.5861
45.835
43.0661
40.4104
38.2376
37.1411
37.6719
40.0707
44.1268
49.1102
54.0718
58.1075
60.6183
61.5514
61.4909
61.4273
62.3523
64.9339
69.2187
74.5872
80.0271
84.3576
86.7385
86.7834
84.6257
80.7968
75.9752
70.7415
65.4238
60.1118
54.7531
49.2936
43.7797
38.3529
33.1598
28.3336
23.9429
19.9584
16.2987
12.9363
9.96101
7.59387
6.11056
5.66757
6.22689
7.44194
8.76849
9.55201
9.25275
7.67348
5.09385
2.23727
0.078981
-0.494931
0.980306
4.46031
9.32916
14.5589
19.0102
21.7279
22.3053
21.0248
18.766
16.7147
16.0099
17.3285
20.4835
24.3638
27.1434
26.8909
22.3239
13.6114
2.77458
-6.5835
-10.0843
-4.05732
13.0348
39.5478
70.5251
98.5378
115.691
115.838
96.5398
60.0205
12.7849
-36.0067
-76.992
-103.114
-111.31
-102.939
-82.9363
-57.944
-34.2382
-16.0987
-5.02709
0.013492
1.63608
2.69546
5.25527
10.0064
16.4199
23.2314
29.1391
33.3429
35.6992
36.7321
37.3029
38.1951
39.8376
42.1287
44.5184
46.1804
46.3292
44.4381
40.392
34.5556
27.7215
20.9043
15.032
10.7442
8.2484
7.35142
7.52822
8.09769
8.53832
8.55163
8.16922
7.70687
7.64563
8.3371
10.0124
12.7009
16.2367
20.2677
24.4098
28.2916
31.6048
34.0966
35.5915
35.9497
35.1368
33.3475
30.9703
28.5505
26.6488
25.7329
26.0442
27.4447
29.4596
31.3535
32.3394
31.8189
29.5356
25.6996
20.9182
16.0449
12.0071
9.58416
9.23247
10.955
14.3952
18.9064
23.8038
28.4573
32.401
35.2926
36.989
37.4646
36.7444
34.8683
32.0128
28.5236
24.8836
21.6588
19.3869
18.4133
18.7852
20.2026
22.0749
23.6456
24.257
23.5534
21.6267
18.9078
16.0715
13.7466
12.3579
11.9398
12.1826
12.5057
12.3417
11.3869
9.71436
7.76899
6.18462
5.6074
6.47204
8.85107
12.4355
16.6115
20.653
23.916
25.9863
26.7338
26.2516
24.7823
22.5954
19.9446
17.0641
14.0868
11.1677
8.53806
6.44457
5.11517
4.6992
5.08725
5.99155
7.07413
8.03039
8.7004
9.22304
9.90185
10.9842
12.42
13.7033
13.9523
12.4089
9.03325
5.05881
3.18186
7.14865
20.7213
46.3113
83.5621
128.698
174.789
213.215
235.789
237.046
215.893
176.074
125.284
73.1262
28.6466
-1.9151
-16.2796
-16.129
-5.94395
8.74591
22.9567
33.4501
39.0346
40.1942
38.2625
34.6163
30.2819
25.7668
21.28
17.0565
13.4573
10.9554
10.0004
10.786
13.1471
16.6255
20.6424
24.7667
28.9119
33.276
38.1842
43.8812
50.3317
57.2547
64.2322
70.9034
77.1252
83.1185
89.2937
95.9968
103.232
110.521
117
121.657
123.71
122.968
119.946
115.728
111.675
108.916
107.977
108.537
109.567
109.712
107.751
102.98
95.4478
85.9145
75.6293
65.9533
57.9125
51.9941
48.0997
45.7009
44.0225
42.2765
39.9393
36.8157
33.0592
29.1148
25.5398
22.8487
21.3658
21.1782
22.095
23.6613
25.2679
26.3247
26.393
25.2788
23.0892
20.1721
16.9565
13.9225
11.454
9.72474
8.66085
8.08703
7.78769
7.62198
7.47504
7.3608
7.36895
7.53658
7.85705
8.19777
8.37696
8.17509
7.50071
6.42018
5.16777
4.07188
3.48885
3.72457
4.91924
6.95984
9.48416
12.0195
14.0513
15.209
15.3182
14.4458
12.8942
11.129
9.61798
8.69573
8.48998
8.9211
9.75576
10.7451
11.6798
12.4795
13.1986
13.9635
14.8684
15.9441
17.0132
17.8096
18.0833
17.6466
16.4949
14.7701
12.7592
10.8089
9.22673
8.17581
7.61032
7.36875
7.27407
7.30333
7.58496
8.44041
10.2256
13.0981
16.7828
20.424
22.759
22.5807
19.3777
13.887
8.33398
6.08676
10.7554
24.9292
48.9619
80.2215
113.283
141.203
157.35
157.404
140.835
111.247
75.5346
42.0032
18.0404
8.1415
12.8143
28.8563
50.6165
71.8922
87.7399
95.7013
96.0479
91.1803
84.4487
78.9385
76.4468
77.216
80.2703
83.8909
86.424
86.7536
84.6172
80.5312
75.5276
70.7182
66.9771
64.6985
63.6934
63.2609
62.407
60.0859
55.5019
48.3904
39.1212
28.6847
18.4329
9.77627
3.80992
0.960067
0.900046
2.57167
4.52543
5.31434
3.94624
0.095615
-5.83362
-12.8586
-19.6689
-25.0738
-28.2842
-29.0505
-27.6802
-24.8507
-21.3618
-17.9074
-14.9846
-12.7466
-11.023
-9.48198
-7.76237
-5.57553
-2.84432
-4e-006
-4.4e-005
-0.000155
-0.000392
-0.000791
-0.001375
-0.002128
-0.002978
-0.003789
-0.004391
0.002449
0.065944
0.169647
0.304468
0.382529
0.333767
0.122282
-0.23073
-0.632757
-0.893224
-0.809612
-0.238155
0.761427
1.86408
2.55049
2.29324
0.809619
-1.75404
-4.70381
-6.83884
-6.70834
-3.06696
4.72665
16.4113
30.7633
45.8867
59.641
70.1816
76.4285
78.2516
76.4193
72.2581
67.1807
62.2617
58.0216
54.4027
50.9677
47.1698
42.6664
37.4809
32.01
26.9095
22.8827
20.4099
19.6456
20.3605
22.0195
23.9713
25.5943
26.3923
26.1985
25.1339
23.3953
21.2367
18.7267
15.8447
12.5574
8.88423
5.02228
1.49137
-0.90663
-1.2133
1.41703
7.40456
16.5576
28.045
40.5262
52.3505
61.8237
67.5978
68.9102
65.7246
58.7561
49.4262
39.5804
31.2288
26.0855
25.086
28.0294
33.4735
39.1013
42.4295
41.7206
36.8336
29.6004
23.5122
22.6386
30.129
46.829
70.4804
96.0427
117.037
127.483
123.815
106.195
78.6207
47.8296
21.2999
5.10073
2.1449
11.7249
30.0313
51.5512
70.9196
84.3272
90.3926
90.134
86.1055
81.2957
78.1029
77.7674
80.287
84.7203
89.6785
93.8459
96.3739
96.9705
95.8447
93.4574
90.3814
87.1418
84.1573
81.6378
79.6463
78.0251
76.4921
74.7563
72.5011
69.539
65.8814
61.8054
57.8192
54.5032
52.3386
51.5438
52.0234
53.3653
54.9527
56.2144
56.7305
56.4241
55.5578
54.473
53.3691
52.2062
50.6357
48.1977
44.48
39.4253
33.4079
27.2252
21.8723
18.1577
16.4566
16.5268
17.6382
18.8805
19.4898
19.1521
18.0958
17.0239
16.8562
18.354
21.7517
26.6584
32.2245
37.3653
41.0994
42.8391
42.4916
40.4589
37.4172
33.9875
30.5547
27.1621
23.5922
19.6634
15.3362
10.8802
6.88008
4.09442
3.18486
4.43282
7.58969
11.9018
16.3317
19.8605
21.7351
21.654
19.8324
16.8808
13.6249
10.8144
8.93759
8.20605
8.52883
9.65645
11.2277
12.849
14.1759
14.9584
15.1122
14.6566
13.7142
12.52
11.3208
10.3447
9.71139
9.42604
9.37856
9.44395
9.5419
9.66005
9.82912
10.09
10.4707
10.9643
11.5433
12.2019
12.993
14.1007
15.7938
18.3486
21.9401
26.5588
31.9446
37.6332
43.0293
47.5184
50.5888
51.959
51.6201
49.8377
47.0957
43.9847
41.1408
39.0534
37.9828
37.7589
37.8678
37.533
36.0265
32.941
28.4026
23.1056
18.0775
14.2751
12.1219
11.1888
10.3729
8.42219
4.76216
0.133386
-3.17769
-1.83494
7.40489
26.2898
53.8882
86.1635
116.674
138.286
145.315
135.398
110.483
76.4778
41.5486
13.7875
-1.04166
-1.05967
11.509
31.4532
52.4355
68.9707
77.8874
78.7975
73.6525
65.609
57.7788
52.2549
49.776
49.9231
51.6811
53.9867
56.1002
57.6434
58.5605
58.8326
58.4272
57.2859
55.3917
52.8617
50.0213
47.3002
45.0385
43.342
42.0496
40.8185
39.315
37.3753
35.1221
32.9499
31.3725
30.7969
31.3792
32.8534
34.6667
36.1337
36.6884
35.9906
34.037
31.1237
27.7043
24.187
20.8483
17.7734
14.885
12.0628
9.30693
6.7406
4.54233
2.96082
2.23123
2.40222
3.29619
4.53
5.63694
6.24645
6.2122
5.68689
5.1032
5.06099
6.13855
8.63539
12.479
17.1911
22.0458
26.2735
29.3156
30.9962
31.5112
31.3231
30.9612
30.8249
30.9812
31.1711
30.928
29.7718
27.4017
23.817
19.3399
14.5306
10.0227
6.35148
3.83114
2.48162
2.10956
2.40953
3.09056
3.93002
4.84215
5.80821
6.87509
8.03803
9.19746
10.1523
10.6712
10.5419
9.68807
8.21059
6.2603
4.10182
2.01803
0.233872
-1.09875
-1.90097
-2.13813
-1.73623
-0.634087
1.2124
3.70184
6.59256
9.48389
11.9095
13.4452
13.8431
13.1687
11.8298
10.4921
9.8953
10.6041
12.8244
16.3622
20.6834
25.0198
28.63
31.0445
32.169
32.2723
31.8314
31.2941
30.9027
30.6034
30.099
28.9603
26.8733
23.8094
20.0764
16.3191
13.3523
11.9206
12.4004
14.6572
17.9655
21.011
22.1945
20.1371
14.2671
5.32863
-4.28543
-10.8746
-10.1709
1.35672
25.1487
59.5232
99.4876
137.54
165.484
176.602
167.688
140.058
99.4036
54.2945
13.8973
-14.4396
-26.9889
-24.188
-9.95512
9.85382
29.376
44.2818
52.5902
54.6685
52.4453
48.4457
44.8227
42.8866
42.9638
44.7055
47.3606
50.1065
52.2282
53.2405
52.9636
51.4556
49.0512
46.3296
43.9312
42.433
42.1249
42.8745
44.1474
45.1848
45.2612
43.905
41.0866
37.1834
32.8974
28.9859
26.0988
24.6709
24.8638
26.6677
29.9907
34.6531
40.3857
46.7452
53.1261
58.7463
62.8104
64.6584
63.9692
60.8501
55.837
49.7171
43.2587
37.0248
31.2879
26.062
21.2513
16.841
13.0252
10.2078
8.80161
9.06672
10.8383
13.4956
16.0636
17.562
17.2873
15.0955
11.4759
7.46825
4.35825
3.25777
4.76415
8.77362
14.5122
20.8515
26.5259
30.5157
32.2963
31.8954
29.8187
26.8221
23.722
21.1798
19.5973
19.079
19.4957
20.5783
21.9722
23.3647
24.5583
25.5222
26.338
27.1524
28.1199
29.3357
30.7034
31.9606
32.738
32.7051
31.7469
30.0488
28.089
26.5522
26.0484
26.9357
29.051
31.6905
33.763
34.1703
32.2236
27.951
22.1757
16.3251
12.0462
10.6966
12.8686
18.1661
25.3123
32.5739
38.2633
41.2489
41.263
38.8954
35.3081
31.894
29.7571
29.4222
30.765
33.1183
35.5772
37.2686
37.5583
36.2133
33.4185
29.6644
25.6679
22.1713
19.7519
18.6101
18.4055
18.2603
16.9355
13.2678
6.86101
-1.34374
-8.94218
-12.4205
-8.19818
6.10501
30.3753
61.3611
93.002
117.84
129.076
122.73
99.0067
62.4785
20.8424
-17.1332
-44.0788
-55.9445
-52.7522
-38.104
-17.6616
2.88305
19.3438
29.9003
34.9537
36.3086
36.1079
35.9047
36.2273
36.7714
36.8599
35.9956
34.1866
31.9286
29.9394
28.848
28.9818
30.3247
32.5706
35.3518
38.3694
41.425
44.4042
47.1112
49.237
50.4141
50.317
48.8569
46.2372
42.9536
39.6585
37.0068
35.4462
35.1148
35.7692
37
38.3897
39.6704
40.8113
41.9738
43.3898
45.1978
47.2702
49.1832
50.2533
49.7992
47.3351
42.7763
36.5103
29.3149
22.1399
15.935
11.3419
8.5988
7.53303
7.6417
8.35673
9.21488
9.89016
10.263
10.3573
10.2655
10.0649
9.82229
9.57429
9.39413
9.41698
9.85342
10.8672
12.4721
14.4997
16.5473
18.1512
18.8414
18.3586
16.7596
14.414
11.9498
10.0057
9.0821
9.31621
10.4808
12.06
13.4649
14.1708
14.0042
13.1605
12.1474
11.5934
12.021
13.6021
16.0793
18.8002
20.9051
21.533
20.1325
16.6823
11.74
6.35845
1.81102
-0.685397
-0.310303
3.14609
9.17221
16.6641
24.1536
30.1981
33.7577
34.3607
32.2364
28.1928
23.3721
18.9766
15.9163
14.5789
14.827
16.0694
17.5432
18.585
18.851
18.5527
18.3278
18.9703
20.9798
24.2016
27.6158
29.5428
28.2793
22.8851
13.9997
4.16213
-2.50558
-1.4328
10.7777
34.7365
67.4622
102.533
131.581
146.614
142.449
118.57
79.5274
33.8353
-8.37858
-38.2743
-50.7248
-45.449
-26.6891
-1.49595
22.5738
39.7604
47.4447
46.3926
39.7756
31.6597
25.4882
23.0716
24.3955
28.0223
31.9904
34.6676
35.2895
34.148
32.2176
30.6148
30.1885
31.1758
33.1767
35.3449
36.7229
36.5977
34.7803
31.6641
28.0951
25.1282
23.704
24.3665
27.1274
31.4544
36.4201
40.9135
44.0474
45.3768
44.9382
43.2213
40.9854
38.968
37.6412
37.0501
36.7743
36.1011
34.2953
30.9036
25.9034
19.8264
13.5829
8.24181
4.75336
3.66517
4.93077
7.93128
11.6808
15.104
17.2778
17.662
16.232
13.4573
10.185
7.36759
5.78755
5.8776
7.64134
10.7083
14.4015
17.9538
20.7046
22.2719
22.5806
21.8589
20.5537
19.2138
18.3622
18.3596
19.3358
21.1379
23.3484
25.406
26.7569
27.0369
26.1926
24.4585
22.3622
20.558
19.5588
19.5722
20.4221
21.6468
22.7288
23.2757
23.2404
22.8743
22.6667
23.1259
24.45
26.4053
28.3947
29.6274
29.4938
27.794
24.8884
21.519
18.635
17.0597
17.2356
19.0616
21.978
25.1924
28.0274
30.0579
31.174
31.5627
31.5563
31.4474
31.3133
30.9808
30.1558
28.6044
26.313
23.5569
20.7883
18.4556
16.7865
15.6031
14.3776
12.5657
10.0781
7.68464
7.23871
11.28
22.2108
41.2201
67.3038
96.9193
124.384
143.183
147.788
135.485
107.527
69.0658
27.9479
-7.40216
-30.2429
-37.263
-29.2951
-10.7593
11.9941
32.6343
46.6562
52.326
50.655
44.4721
37.1771
31.5502
29.0163
29.4867
31.8291
34.5526
36.5171
37.2574
37.0167
36.4812
36.4293
37.3523
39.3427
42.0093
44.72
46.8858
48.1443
48.4782
48.1404
47.516
47.0115
46.8958
47.1974
47.7049
48.142
48.2317
47.8927
47.2823
46.7268
46.6587
47.4436
49.2247
51.8402
54.7701
57.199
58.2353
57.1474
53.614
47.7789
40.3299
32.3695
25.1457
19.7083
16.6226
15.817
16.6412
18.081
19.123
19.028
17.5529
15.0188
12.186
9.97016
9.1048
9.96416
12.4651
16.1359
20.3101
24.289
27.5104
29.6843
30.7782
30.9903
30.6265
29.9962
29.4468
29.253
29.6147
30.5562
31.9119
33.3696
34.4787
34.8271
34.1329
32.3818
29.871
27.1896
25.0928
24.2671
25.101
27.5704
31.1226
34.862
37.7402
38.8572
37.7471
34.5388
30.0294
25.3129
21.528
19.5097
19.5448
21.3061
-7e-006
-8.4e-005
-0.00031
-0.000786
-0.001603
-0.002786
-0.004238
-0.005693
-0.006737
-0.006899
0.007245
0.130516
0.356057
0.630259
0.808114
0.688111
0.111173
-0.927889
-2.13732
-2.93607
-2.62642
-0.771688
2.44359
6.02188
8.28872
7.45083
2.46206
-6.12859
-15.778
-22.3044
-21.0454
-8.56808
15.7664
48.925
84.4709
114.119
130.069
127.447
105.933
69.9825
27.6016
-12.0006
-40.9965
-54.9231
-53.5106
-40.1722
-20.47
-0.176841
16.3593
26.9844
31.6643
31.7894
29.2845
25.8316
22.5467
20.0311
18.5739
18.3806
19.6168
22.2402
25.8555
29.7974
33.1451
35.1302
35.4618
34.4323
32.8952
31.9046
32.3301
34.5237
38.1722
42.4452
46.2917
48.8857
49.9001
49.5742
48.5633
47.6849
47.6171
48.6453
50.6124
53.0215
55.2913
56.9536
57.8347
58.0621
57.8707
57.4959
56.9913
56.1508
54.5909
51.8667
47.6713
42.0503
35.4132
28.4039
21.7433
16.0652
11.833
9.24161
8.25846
8.66995
10.1878
12.4559
15.0716
17.606
19.5983
20.625
20.4718
19.2196
17.2218
15.0459
13.3522
12.688
13.394
15.4343
18.4767
22.0019
25.4571
28.4127
30.5663
31.787
32.0463
31.4116
30.0405
28.1352
25.9565
23.8152
22.0683
20.999
20.7382
21.2484
22.3703
23.8133
25.32
26.7316
27.9442
28.9483
29.8227
30.6468
31.4936
32.405
33.3744
34.4161
35.5522
36.7319
37.8253
38.633
38.9739
38.7262
37.9573
36.8906
35.918
35.4486
35.811
37.1046
39.1619
41.5157
43.5802
44.8463
44.9647
43.793
41.4282
38.1235
34.1805
29.9612
25.8271
22.1555
19.2798
17.4246
16.5608
16.2265
15.6037
13.7621
10.1569
5.10454
0.135684
-2.0412
1.81422
14.4482
36.8579
67.3184
101.257
132.033
152.592
157.405
144.245
115.026
75.5576
33.9639
-1.44124
-24.3568
-32.0026
-25.477
-8.95378
11.8213
31.2656
45.399
52.5377
53.1528
49.1941
43.0487
36.8184
31.8251
28.6021
27.0762
26.8827
27.6144
28.9371
30.611
32.4442
34.2556
35.8674
37.1998
38.2422
39.1154
39.9833
41.0105
42.2594
43.6808
45.1217
46.3535
47.1694
47.4954
47.4368
47.2767
47.3863
48.137
49.7227
52.1139
55.0101
57.8309
59.9134
60.6881
59.8898
57.567
54.1093
50.1103
46.2084
42.8531
40.2467
38.3036
36.6937
35.0341
33.027
30.5431
27.6051
24.3787
21.0758
17.8783
14.9513
12.3407
10.0648
8.11315
6.51217
5.27121
4.35244
3.69945
3.2566
3.00498
3.0353
3.5109
4.63934
6.58098
9.36431
12.7773
16.3481
19.4644
21.4807
22.049
21.2075
19.4116
17.4025
15.9985
15.7877
16.9043
19.0305
21.4348
23.3314
24.2057
23.9987
23.1122
22.3216
22.3893
23.8141
26.609
30.2887
33.9983
36.818
38.0197
37.2863
34.7767
30.9848
26.6539
22.5943
19.5235
17.9267
17.9576
19.4552
21.9713
24.868
27.4228
29.081
29.5828
29.1351
28.2778
27.7432
28.1008
29.6535
32.1641
35.0243
37.368
38.4766
38.0154
36.2167
33.7955
31.6952
30.7378
31.2284
32.9357
35.1464
36.9467
37.5716
36.8092
35.0875
33.3284
32.5787
33.394
35.5101
37.7765
38.4086
35.6633
28.782
18.6288
8.01243
1.18831
2.69158
15.6923
40.5921
74.3004
110.491
141.054
158.271
157.051
136.597
100.793
57.2145
14.9881
-17.6361
-35.3706
-37.067
-25.5374
-6.28375
14.3615
31.1157
40.929
43.3508
39.9966
33.6868
27.2074
22.6367
20.8982
21.8921
24.7887
28.5497
32.2665
35.2833
37.3116
38.3098
38.4327
37.9992
37.4071
37.0143
37.1676
38.0658
39.7081
41.8814
44.2013
46.2433
47.719
48.606
49.1393
49.7227
50.7498
52.4729
54.8806
57.645
60.25
62.1477
63.0237
62.8595
61.9268
60.702
59.6342
58.9988
58.7674
58.6686
58.2045
56.9021
54.4492
50.8014
46.163
40.8918
35.4149
30.1141
25.3066
21.1877
17.7923
15.0788
12.9248
11.2147
9.86063
8.8677
8.32414
8.42442
9.37454
11.1704
13.5698
16.0519
17.9514
18.7219
18.1448
16.4585
14.3459
12.7096
12.3495
13.6531
16.4103
19.8846
23.0958
25.2298
25.8993
25.2935
24.0561
23.0362
22.9328
23.9774
25.9187
28.0973
29.7389
30.2528
29.4268
27.488
24.9394
22.4197
20.4433
19.3168
19.0423
19.4675
20.3456
21.5004
22.8378
24.2863
25.7988
27.2899
28.6161
29.6074
30.0509
29.811
28.9037
27.5035
25.8721
24.2943
23.029
22.2626
22.0844
22.4154
23.0659
23.7975
24.4289
24.8437
25.0877
25.3288
25.82
26.825
28.5054
30.8638
33.642
36.3911
38.617
39.9553
40.2781
39.8043
39.0533
38.6926
39.2934
41.0348
43.5535
45.9869
47.2592
46.4785
43.3901
38.587
33.3254
29.0687
26.8268
26.5328
26.9119
25.938
21.7849
14.039
4.47099
-3.0203
-3.39156
7.82556
32.4724
68.3671
109.195
145.842
168.882
171.497
151.695
113.119
64.1014
15.3459
-23.1413
-44.8459
-48.1623
-36.2666
-15.5366
6.72631
24.5591
34.7289
37.0734
33.8091
28.1891
23.1761
20.567
20.713
22.8588
25.7319
28.1555
29.3912
29.2561
28.1132
26.5955
25.3925
25.0559
25.9121
28.0104
31.1302
34.8315
38.5893
41.8666
44.2812
45.7314
46.3435
46.4051
46.249
46.1394
46.2644
46.6812
47.3503
48.1929
49.1592
50.2236
51.2965
52.2792
53.0384
53.4457
53.4606
53.1552
52.6484
52.012
51.2585
50.2617
48.7148
46.2489
42.5734
37.6482
31.7903
25.6195
19.9203
15.4453
12.7184
11.9287
12.8088
14.7636
17.0335
18.8966
19.8594
19.7562
18.7008
16.9972
15.1136
13.4632
12.3046
11.722
11.623
11.8124
12.1127
12.4506
12.9434
13.8133
15.3341
17.7248
21.0534
25.0817
29.2709
32.8984
35.2895
35.9503
34.7289
31.897
28.1039
24.1889
20.9617
18.9774
18.3509
18.8098
19.8097
20.7718
21.2632
21.1698
20.7075
20.352
20.5968
21.7478
23.7505
26.2125
28.5092
29.9996
30.2206
29.0381
26.7361
23.9588
21.4583
19.8917
19.6522
20.7522
22.8891
25.5759
28.242
30.4336
31.9124
32.6698
32.861
32.7138
32.457
32.2878
32.3052
32.5579
33.0092
33.5939
34.2246
34.8684
35.5864
36.4577
37.5747
38.9973
40.7309
42.6501
44.484
45.9329
46.7842
46.9758
46.7022
46.3357
46.2414
46.6251
47.4095
48.2027
48.4399
47.6327
45.5728
42.493
38.9045
35.3172
31.8668
28.2588
23.9203
18.5212
12.6429
8.10691
7.90003
15.3776
32.8597
60.2904
94.4087
128.942
155.915
167.919
160.364
133.142
91.0469
42.6255
-2.13608
-34.644
-49.8992
-47.5619
-31.5842
-8.54754
14.5074
32.1374
41.6874
43.4485
39.8431
34.0758
28.906
25.9082
25.3035
26.3012
27.6813
28.4329
28.0783
26.7394
24.9631
23.4813
22.8978
23.5652
25.5092
28.4297
31.7647
34.8425
37.0817
38.1637
38.1176
37.38
36.6473
36.7264
38.2838
41.563
46.3143
51.8084
57.0471
61.0913
63.3001
63.4931
61.9175
59.1911
56.045
53.1249
50.8517
49.3041
48.3172
47.5714
46.7195
45.4235
43.4048
40.4923
36.6734
32.0942
27.1237
22.3307
18.3756
15.9124
15.4153
16.9441
20.0814
23.9829
27.6132
29.9633
30.3434
28.5847
25.0959
20.7303
16.5206
13.3708
11.7909
11.8129
13.0593
14.865
16.5672
17.6562
17.9828
17.7523
17.3711
17.3189
17.8755
19.0769
20.7164
22.4069
23.6885
24.216
23.8609
22.7776
21.3327
19.9906
19.1005
18.8566
19.2761
20.1512
21.1727
22.0186
22.4523
22.3088
21.6045
20.4408
18.9353
17.2379
15.5868
14.2613
13.5755
13.7685
14.9175
16.8903
19.3555
21.8131
23.7355
24.763
24.8976
24.4541
24.0128
24.1429
25.2088
27.2293
29.8498
32.4235
34.24
34.7552
33.8202
31.6689
28.8956
26.2
24.2452
23.4848
24.0929
25.9932
28.8541
32.2381
35.7125
38.8992
41.508
43.3693
44.4473
44.8889
44.9709
45.026
45.2814
45.7827
46.3832
46.7408
46.4672
45.3262
43.4288
41.2227
39.3455
38.2687
37.9125
37.4799
35.6334
31.0647
23.3201
13.4322
4.25891
-0.053837
4.80555
21.6784
50.3792
87.0357
124.539
154.156
167.99
161.333
134.242
91.789
42.75
-2.8412
-36.4732
-53.3281
-53.1915
-39.9376
-19.9113
0.228929
15.4821
23.5642
24.9775
22.1505
18.1396
15.4496
15.3164
17.6065
21.232
24.7721
27.0768
27.6543
26.732
25.0145
23.3439
22.3977
22.5142
23.6785
25.581
27.7974
29.9081
31.7407
33.3197
34.8657
36.6959
39.1071
42.2556
46.0841
50.3618
54.6947
58.6346
61.7339
63.7272
64.5251
64.1642
62.8518
60.9163
58.7045
56.5453
54.7097
53.3225
52.3512
51.6752
51.0676
50.2532
48.9635
47.0289
44.4239
41.2316
37.6408
33.9049
30.3556
27.315
25.0817
23.7781
23.3433
23.5382
23.9843
24.2629
24.0347
23.186
21.9183
20.7105
20.1591
20.7984
22.868
26.2021
30.2706
34.3173
37.5544
39.3925
39.6322
38.4796
36.4883
34.3719
32.7652
32.1031
32.5018
33.7295
35.3185
36.6566
37.1864
36.5739
34.8036
32.1248
29.0724
26.3324
24.5654
24.2205
25.3419
27.5484
30.1023
32.1644
33.0142
32.2645
30.0454
26.9705
23.9457
21.8327
21.1653
21.9409
23.6923
25.6794
27.2014
27.8141
27.4855
26.5776
25.6559
25.2079
25.4816
26.3789
27.5724
28.6306
29.2371
29.2774
28.8137
28.0588
27.2513
26.6218
26.2731
26.2985
26.7655
27.766
29.335
31.399
33.6733
35.7108
37.046
37.3268
36.5074
34.9131
33.2028
32.1068
32.2389
33.7621
36.3252
1e-006
7e-006
2.1e-005
4.2e-005
6.2e-005
7.6e-005
6.9e-005
3.1e-005
-5.1e-005
-0.00018
-0.001501
-0.011577
-0.022343
-0.020638
0.003445
0.037952
0.079984
0.10139
0.090048
0.035955
-0.074746
-0.19636
-0.265973
-0.215672
-0.020181
0.276922
0.580483
0.741148
0.623741
0.159782
-0.59647
-1.46289
-2.16572
-2.41821
-2.03828
-0.984156
0.609386
2.47652
4.31982
5.90419
7.13381
8.0747
8.91944
9.88095
11.0987
12.5603
14.1269
15.5519
16.5616
16.9376
16.6272
15.7404
14.57
13.5339
13.0181
13.3379
14.6839
16.9854
19.9658
23.1696
26.0514
28.1474
29.2465
29.4213
29.0728
28.8156
29.3212
31.0472
34.1375
38.283
42.7885
46.8395
49.714
51.0303
50.84
49.588
47.9582
46.5875
45.8198
45.5607
45.3183
44.3919
42.1532
38.3315
33.1125
27.1532
21.3867
16.7136
13.6939
12.385
12.3233
12.7448
12.8769
12.1937
10.5895
8.37509
6.14185
4.51978
3.91626
4.40126
5.71907
7.39427
8.97181
10.1762
10.8944
11.2075
11.361
11.5146
11.7752
12.1482
12.5485
12.9338
13.3142
13.72
14.1578
14.5933
14.9495
15.1198
15.0817
14.8794
14.6845
14.7756
15.3623
16.4686
17.8552
19.0711
19.6212
19.1805
17.7447
15.7353
13.8592
12.9202
13.5079
15.8062
19.4374
23.6019
27.3741
29.9983
31.1575
31.0141
30.0722
28.9913
28.3349
28.341
28.924
29.7748
30.5524
31.0884
31.4312
31.7998
32.4208
33.389
34.6105
35.7992
36.5876
36.7079
36.168
35.2024
34.2158
33.5965
33.5118
33.8785
34.3764
34.6176
34.3236
33.4641
32.323
31.4258
31.3187
32.2779
34.247
36.8492
39.5108
41.634
42.8485
43.1211
42.7542
42.2718
42.1754
42.7847
44.0642
45.6715
47.0746
47.7658
47.3849
45.8703
43.5697
41.0998
39.1908
38.3208
38.4445
38.8549
38.2632
35.1529
28.4122
18.0783
5.8445
-4.83893
-9.47894
-3.79492
14.6658
45.264
83.6737
122.483
152.901
167.139
160.791
134.303
93.011
45.7541
2.39275
-28.8926
-43.6565
-42.0288
-28.0951
-8.17518
11.3027
25.6724
32.9315
33.6406
30.0612
24.9755
20.6577
18.2871
17.9805
19.1664
21.0783
23.1509
25.0872
26.8144
28.3227
29.6044
30.6617
31.5439
32.3732
33.3176
34.5918
36.3146
38.3826
40.531
42.4474
43.9334
45.0194
45.9679
47.1291
48.8254
51.1233
53.8933
56.7494
59.2701
61.0961
62.1396
62.5687
62.6924
62.8084
63.0612
63.3516
63.4264
62.9471
61.6302
59.3822
56.3449
52.8145
49.0915
45.3302
41.4847
37.3607
32.7763
27.6929
22.4251
17.6104
14.142
12.8506
14.2239
18.1396
23.8154
29.9722
35.2239
38.4091
38.9384
36.9515
33.2401
28.969
25.2476
22.7649
21.669
21.6321
22.0705
22.3721
22.2012
21.564
20.7681
20.2903
20.5221
21.617
23.4342
25.6078
27.6442
29.0894
29.558
28.8848
27.1286
24.613
21.844
19.4455
18.0301
18.0134
19.4833
22.1058
25.0917
27.4483
28.2586
27.0444
23.974
19.8709
15.9514
13.4515
13.2238
15.3653
19.214
23.536
26.9869
28.5544
27.8707
25.2482
21.5152
17.6789
14.6427
12.9211
12.5539
13.2867
14.6942
16.4148
18.2192
19.9454
21.4879
22.7502
23.611
23.9818
23.862
23.3492
22.6684
22.1277
22.0093
22.4656
23.4286
24.7483
26.1902
27.6227
28.9331
30.1338
31.3158
32.5742
33.9566
35.4536
36.9722
38.414
39.6289
40.4611
40.6847
40.033
38.2723
35.3824
31.6487
27.6411
24.1293
21.7327
20.6614
20.4639
20.068
18.2038
14.1005
8.26253
2.81136
1.2191
7.38696
24.1432
51.8902
87.6416
125.188
156.445
173.568
171.357
149.004
110.504
63.7049
18.1719
-17.4699
-37.7852
-41.6774
-32.2138
-15.1792
3.0078
17.2247
24.8401
25.8943
22.4029
17.2236
12.8838
10.7599
10.9335
12.5502
14.3823
15.4127
15.1803
13.8107
11.916
10.2644
9.59049
10.3861
12.7565
16.4806
21.0995
25.9999
30.5398
34.2092
36.7161
38.0876
38.6405
38.8326
39.1184
39.8518
41.1741
43.0196
45.188
47.4548
49.6104
51.5964
53.4269
55.1413
56.716
58.0325
58.9223
59.2332
58.8228
57.6341
55.6752
53.0213
49.7622
45.9367
41.5713
36.7407
31.6541
26.6689
22.2243
18.824
16.7969
16.2508
16.9877
18.481
20.0302
20.9387
20.7399
19.3553
17.1418
14.7894
13.1115
12.8195
14.3338
17.6408
22.2303
27.316
32.0665
35.8072
38.2146
39.3029
39.4255
39.1271
38.9279
39.1306
39.753
40.565
41.1896
41.2717
40.6351
39.3034
37.5228
35.7061
34.2841
33.5965
33.791
34.8293
36.5323
38.6384
40.7911
42.5999
43.6709
43.7121
42.5777
40.2467
36.8885
32.8987
28.8244
25.1937
22.404
20.6414
19.7947
19.5398
19.4623
19.2343
18.6895
17.8894
17.1071
16.6749
16.8106
17.4807
18.3824
19.0687
19.1584
18.5346
17.357
16.0689
15.315
15.673
17.3985
20.3144
23.9093
27.5328
30.6165
32.8888
34.468
35.7799
37.3347
39.497
42.3683
45.6733
48.9001
51.5359
53.2636
54.0465
54.1063
53.7777
53.4076
53.2539
53.4313
53.9584
54.7604
55.6927
56.435
56.3983
54.7107
50.5225
43.5423
34.5725
25.8995
21.1065
24.2781
38.6521
65.1341
101.24
140.935
175.796
197.155
198.66
178.342
139.427
89.7209
39.4417
-1.58483
-26.5696
-33.3879
-24.666
-6.39007
14.3208
31.3735
41.276
43.5908
40.2972
34.4893
29.0453
25.6863
24.7439
25.502
26.8657
27.9837
28.5679
28.832
29.2264
30.1329
31.6132
33.4166
35.0598
36.1222
36.4174
36.0649
35.4166
34.9018
34.9381
35.8228
37.7224
40.5579
44.0472
47.8285
51.5287
54.8276
57.4992
59.4606
60.784
61.6584
62.2636
62.682
62.8744
62.7335
62.1681
61.1529
59.716
57.9975
56.1523
54.257
52.2891
50.1177
47.5745
44.5656
41.19
37.6943
34.4194
31.6969
29.7092
28.4457
27.6959
27.1433
26.4603
25.4913
24.2854
22.9997
21.8351
20.9443
20.3754
20.0799
19.9974
20.0945
20.3739
20.8893
21.7204
22.8209
24.0236
25.0445
25.6373
25.6861
25.3056
24.7551
24.335
24.2816
24.6359
25.2097
25.6093
25.399
24.3514
22.5513
20.3695
18.3616
17.0549
16.8041
17.6535
19.3309
21.33
23.131
24.3534
24.8368
24.6874
24.1514
23.4658
22.79
22.1317
21.3194
20.1327
18.3997
16.1012
13.447
10.8655
8.84471
7.7581
7.79469
8.87386
10.6201
12.5012
13.984
14.7141
14.6411
14.0358
13.346
13.0482
13.4818
14.8238
16.9436
19.5343
22.2202
24.7195
26.9304
28.9153
30.8488
32.9089
35.1758
37.6333
40.1317
42.3995
44.108
44.9734
44.85
43.7553
41.9791
40.0473
38.607
38.2099
38.9601
40.2914
40.9972
39.5329
34.7305
26.6256
17.0213
9.44275
8.43676
18.1195
40.4651
74.0145
113.49
150.751
176.855
184.619
170.87
137.593
91.5398
42.4146
0.117463
-27.9264
-38.5302
-33.1146
-16.6351
4.35602
23.8047
37.7226
44.7687
45.9052
43.3478
39.4012
35.6557
32.7402
30.5674
28.7389
26.9731
25.3132
24.028
23.4344
23.6607
24.5749
25.8837
27.2872
28.6521
30.0122
31.4923
33.1818
34.969
36.6421
37.9299
38.6951
39.0791
39.4888
40.5335
42.7481
46.3379
51.0211
56.1169
60.7473
64.1602
65.9877
66.3356
65.7547
65.0213
64.7438
65.1183
65.8288
66.1882
65.4269
63.0498
59.0082
53.8099
48.3477
43.6207
40.3745
38.8381
38.6729
39.0904
39.1401
38.0382
35.3917
31.3474
26.4836
21.6731
17.7674
15.3356
14.5691
15.2599
16.9305
19.0249
21.0607
22.6978
23.8067
24.4188
24.6709
24.708
24.6786
24.6789
24.8329
25.2697
26.0742
27.201
28.4588
29.5766
30.28
30.3041
29.5672
28.2499
26.7294
25.513
25.0483
25.5262
26.84
28.6238
30.3527
31.5392
31.8425
31.2136
29.8373
28.062
26.2544
24.6786
23.4607
22.6389
22.188
22.0391
22.0705
22.1298
22.0353
21.5884
20.6381
19.2119
17.5018
15.909
14.9086
14.885
15.9131
17.7916
20.0459
22.1209
23.5652
24.1439
23.9365
23.2622
22.5461
22.1213
22.0857
22.3359
22.6337
22.794
22.7908
22.7819
23.0926
24.1019
26.1278
29.2447
33.2595
37.7281
42.0285
45.5164
47.6294
47.9495
46.2702
42.7197
37.8296
32.4722
27.698
24.5037
23.4463
24.3312
26.1225
27.1366
25.7014
20.9887
13.7962
6.82012
4.16896
10.239
28.1029
57.9486
96.2924
136.275
169.204
186.95
184.322
160.823
120.873
72.7603
26.3427
-9.66466
-29.9362
-33.6234
-24.0028
-6.97431
11.0522
25.0443
32.4081
33.2161
29.4928
24.0674
19.4048
16.9098
16.7772
18.3184
20.5103
22.4941
23.8341
24.5482
24.9793
25.5852
26.7315
28.5497
30.8798
33.367
35.5617
37.0547
37.5789
37.1371
36.0321
34.8653
34.3282
34.9743
37.0705
40.4912
44.7604
49.2039
53.1657
56.205
58.235
59.4471
60.2186
60.8548
61.5041
62.0972
62.3756
62.0527
60.8531
58.611
55.3548
51.2631
46.5799
41.5465
36.3945
31.3553
26.6651
22.5764
19.2248
16.6249
14.6991
13.3159
12.3338
11.698
11.4546
11.7495
12.7339
14.4244
16.5652
18.6669
20.1114
20.4269
19.4645
17.4602
15.021
12.9611
11.9599
12.4067
14.1783
16.7116
19.2051
20.9543
21.5025
20.8043
19.2011
17.2849
15.6769
14.8709
15.1099
16.3618
18.4422
21.0036
23.6511
25.9444
27.4857
27.9497
27.2027
25.3798
22.8464
20.1473
17.8906
16.5444
16.2832
16.954
18.1007
19.1957
19.8007
-1e-006
-1.2e-005
-5.1e-005
-0.000139
-0.000302
-0.000567
-0.000949
-0.00143
-0.001947
-0.002407
-0.000915
0.016933
0.059814
0.119255
0.177928
0.208723
0.18282
0.0617
-0.167331
-0.428698
-0.590167
-0.517459
-0.13925
0.519439
1.26256
1.75165
1.60819
0.577319
-1.2564
-3.36797
-4.85969
-4.62878
-1.71885
4.25948
12.9425
23.1756
33.2439
41.3027
45.9062
46.4733
43.465
38.215
32.5858
28.4322
27.0162
28.5945
32.2962
36.2911
38.3383
36.4764
29.8247
19.211
7.35246
-1.54787
-2.78262
7.42411
30.3973
64.0834
102.971
139.109
164.053
171.174
157.677
125.565
81.2557
33.8958
-7.12469
-34.6959
-45.6615
-41.1643
-25.7654
-5.74207
12.9015
26.0844
32.3139
32.4229
28.7236
23.8568
19.9171
18.0373
18.3375
20.3192
23.2323
26.3196
29.0172
30.9472
31.9347
31.9574
31.188
30.0698
29.2294
29.2454
30.482
32.9578
36.2979
39.8614
42.9963
45.2578
46.663
47.6225
48.7478
50.6304
53.5754
57.4718
61.8422
66.0209
69.362
71.4638
72.2824
72.1053
71.447
70.7735
70.3524
70.1599
69.9266
69.2522
67.773
65.2703
61.7504
57.4696
52.8627
48.3762
44.3355
40.8852
38.0247
35.5655
33.2802
30.9582
28.5008
25.9902
23.6591
21.8406
20.8196
20.7533
21.6043
23.096
24.7899
26.1311
26.6499
26.1003
24.5313
22.2786
19.8908
18.0058
17.1997
17.8171
19.8699
22.9645
26.476
29.6196
31.6484
32.0588
30.6826
27.7722
23.9462
20.0317
16.8503
15.0101
14.7291
15.7722
17.6241
19.5953
21.0242
21.5009
21.0239
19.9839
18.9547
18.4816
18.8869
20.1453
21.9108
23.6508
24.8242
25.0899
24.4778
23.364
22.349
21.9941
22.681
24.4735
27.1429
30.228
33.1952
35.604
37.247
38.1728
38.5649
38.6184
38.503
38.3009
38.0307
37.6521
37.168
36.6373
36.25
36.2345
36.7832
37.9739
39.7734
42.0173
44.4534
46.81
48.7997
50.2294
51.0372
51.3014
51.2297
51.1165
51.2619
51.8823
53.115
54.8843
56.8467
58.4413
59.0561
58.194
55.5774
51.3067
45.9664
40.502
35.9825
33.2419
32.4291
32.8547
33.077
31.3696
26.4608
18.3059
8.62548
0.870697
-0.589097
8.08675
28.6272
59.4108
95.2817
128.478
150.556
154.81
138.411
103.463
56.6395
7.31019
-34.9716
-63.0394
-73.7771
-68.5286
-52.1619
-31.204
-11.8227
1.81383
8.20986
8.28392
4.39114
-0.79031
-5.22457
-7.95097
-8.98459
-8.97357
-8.6929
-8.62576
-8.8134
-8.95748
-8.61814
-7.47438
-5.35297
-2.32356
1.31167
5.12479
8.68497
11.6567
13.8325
15.2312
16.0091
16.396
16.6783
17.1226
17.919
19.1382
20.7537
22.7382
25.0947
27.8591
31.0608
34.6766
38.6548
42.8869
47.183
51.2487
54.742
57.3037
58.6188
58.4143
56.5819
53.2556
48.8233
43.9011
39.264
35.6232
33.4454
32.8193
33.4105
34.601
35.6447
35.9165
35.0868
33.2481
30.8295
28.4061
26.446
25.1616
24.4956
24.179
23.941
23.6023
23.2742
23.3043
24.089
25.8465
28.4076
31.1915
33.2864
33.8301
32.2451
28.4489
22.9636
16.8328
11.2962
7.42198
5.82714
6.58271
9.2941
13.2816
17.7602
22.0476
25.6922
28.4476
30.2219
31.007
30.8268
29.8011
28.1339
26.1408
24.2373
22.8086
22.0963
22.1679
22.9122
24.0177
25.1133
25.911
26.2585
26.1942
25.8802
25.5214
25.2666
25.1895
25.2301
25.2635
25.114
24.5677
23.5017
21.8756
19.7563
17.281
14.7174
12.4161
10.7206
9.90007
10.0333
11.0064
12.5456
14.3188
16.0324
17.4856
18.66
19.6753
20.648
21.5876
22.3146
22.5166
21.8588
20.1637
17.504
14.195
10.7463
7.66221
5.32861
3.95187
3.52219
3.96417
5.2013
7.12512
9.46546
11.5636
12.3647
10.724
5.89138
-1.84383
-10.647
-17.1704
-17.247
-7.26221
14.2798
45.5684
81.2398
113.426
133.801
136.058
118.023
82.5703
37.1123
-8.51297
-44.7768
-65.0871
-67.3554
-54.1325
-31.3801
-6.30741
14.8039
28.2067
33.2638
31.8826
27.3365
22.8492
20.6426
21.4752
24.8021
29.2829
33.4531
36.228
37.1853
36.5467
35.0235
33.4885
32.7872
33.5162
35.8492
39.5218
43.8621
48.0013
51.1542
52.8321
53.0248
52.12
50.8774
50.1662
50.6854
52.7528
56.2681
60.7406
65.4907
69.8562
73.3381
75.6576
76.7785
76.8744
76.2851
75.3649
74.4325
73.6719
73.2463
73.122
73.1312
72.9631
72.2261
70.5306
67.5626
63.1989
57.568
51.1023
44.4882
38.5638
34.1205
31.7274
31.5709
33.404
36.5626
40.0738
42.8986
44.1601
43.3629
40.4917
35.9773
30.5256
24.9905
20.1571
16.5968
14.583
14.1067
14.9726
16.8954
19.5309
22.5456
25.4751
27.8652
29.2829
29.3918
28.1088
25.641
22.5088
19.4633
17.2664
16.4426
17.1006
18.8666
21.0485
22.8931
23.7997
23.578
22.5015
21.2118
20.4498
20.7777
22.3362
24.8254
27.6171
29.942
31.2062
31.182
30.0304
28.2322
26.43
25.1571
24.7364
25.2083
26.4353
28.1545
30.1517
32.2956
34.6009
37.1206
39.9809
43.1909
46.6315
50.0694
53.1955
55.7171
57.4131
58.1571
57.9949
57.1186
55.7271
54.0568
52.199
50.1565
47.9243
45.5581
43.3207
41.6259
40.9268
41.477
43.0081
44.6147
44.9035
42.4319
36.5289
28.0084
19.4515
14.7938
18.2807
32.8254
58.5853
92.0822
126.533
153.448
165.005
156.535
128.223
85.375
37.092
-6.28025
-36.0293
-47.5073
-41.2058
-22.103
2.25827
24.2487
38.4279
42.7555
38.6237
29.6984
20.3196
13.8605
11.8289
13.7751
17.9461
22.2662
25.2432
26.3449
26.0345
25.3481
25.2398
26.2076
28.0499
30.0421
31.3124
31.2543
29.812
27.4904
25.173
23.7798
23.9384
25.7529
28.8363
32.4029
35.6314
37.9714
39.2925
39.8618
40.2014
40.8116
42.013
43.7981
45.8084
47.5642
48.59
48.6378
47.7193
46.0395
43.8966
41.5517
39.1629
36.7341
34.043
30.8631
27.049
22.6428
17.9167
13.3183
9.39298
6.6526
5.45457
5.85324
7.59739
10.1744
12.9455
15.3203
16.9244
17.5858
17.3791
16.5521
15.4259
14.3123
13.4057
12.8214
12.628
12.867
13.6515
15.081
17.182
19.8777
22.9719
26.1297
28.948
31.0688
32.2809
32.6102
32.2729
31.5835
30.8462
30.2304
29.7165
29.1062
28.0857
26.3533
23.7051
20.1562
15.9093
11.2638
6.51339
1.89014
-2.45906
-6.46106
-10.0977
-13.335
-16.0442
-18.0188
-19.0324
-18.9332
-17.7867
-15.8217
-13.3865
-10.9023
-8.74345
-7.13986
-6.12296
-5.56039
-5.22348
-4.95305
-4.66876
-4.39024
-4.16419
-3.9665
-3.68932
-3.12744
-1.95893
0.082912
3.1509
7.15652
11.7952
16.617
21.1569
25.0299
27.9599
29.8374
30.6543
30.4634
29.3621
27.4613
24.9338
22.177
19.8179
18.5192
18.7975
20.6694
23.4125
25.6799
25.8569
22.6926
16.1224
7.85629
1.33308
0.943058
10.6503
32.3437
64.6245
102.493
138.217
163.263
170.693
157.414
125.301
80.8497
33.4334
-7.27746
-33.9475
-43.3656
-36.9244
-19.7164
1.38041
19.8923
31.4706
34.6881
30.7648
22.514
13.1711
5.30671
0.306398
-1.61345
-0.989131
1.36883
4.79617
8.80929
13.0394
17.1136
20.6046
23.1285
24.4919
24.8119
24.5168
24.2461
24.6451
26.0756
28.4956
31.5079
34.5077
37.0065
38.8395
40.1815
41.4503
43.1602
45.6852
49.0465
52.8961
56.6313
59.5938
61.3317
61.7628
61.1553
60.0309
58.9511
58.3517
58.3085
58.5033
58.3322
57.0971
54.2789
49.7319
43.7436
36.9978
30.378
24.711
20.5886
18.1957
17.3093
17.4719
18.1758
19.0486
19.9157
20.7886
21.7618
22.9178
24.2371
25.5091
26.4781
26.9336
26.8402
26.3207
25.6092
24.9663
24.5645
24.4194
24.4318
24.4319
24.2975
24.0027
23.6662
23.4545
23.4625
23.6124
23.6751
23.3407
22.401
20.8237
18.7977
16.6997
14.9662
13.9714
13.8476
14.4469
15.4091
16.3653
17.0382
17.3419
17.3598
17.2904
17.3145
17.5476
17.9407
18.3088
18.4501
18.243
17.7618
17.2049
16.8686
17.0606
17.9901
19.7289
22.1244
24.8738
27.5934
29.8883
31.4551
32.1155
31.8656
30.9274
29.7258
28.7822
28.5918
29.4194
31.2532
33.7391
36.267
38.1612
38.9007
38.3651
36.8929
35.2265
34.2879
34.8398
37.213
41.1384
45.8736
50.3714
53.6094
54.9315
54.2558
52.124
49.4501
47.1955
46.0037
46.0023
46.7361
47.377
47.0769
45.3111
42.1108
38.0758
34.0199
30.5017
27.478
24.2153
19.6015
12.7694
3.88219
-5.30954
-11.534
-10.7562
0.400211
23.1162
55.2875
91.4514
123.78
144.127
146.354
128.402
93.0743
47.4452
0.959611
-37.2721
-60.8308
-67.4868
-59.3684
-41.7443
-21.1588
-3.30407
8.33908
13.0379
12.3347
8.94687
5.56921
4.01523
4.8376
7.51969
10.9553
13.9524
15.6837
15.8916
14.8004
12.9792
11.1825
10.1681
10.5728
12.7201
16.5364
21.4747
26.6671
31.1457
34.0789
35.1086
34.5083
33.1242
32.1192
32.563
34.9957
39.2837
44.6583
50.0536
54.5096
57.4967
59.0922
59.9392
60.9497
62.8204
65.7091
69.2122
72.4267
74.3046
74.0794
71.5012
66.9546
61.3367
55.6593
50.7394
46.8779
43.8651
41.1198
38.0643
34.4087
30.3306
26.4311
23.4993
22.1825
22.6594
24.5049
26.7186
28.1412
27.8168
25.3236
20.905
15.4382
10.0932
6.00111
3.85425
3.72621
5.11429
7.2062
9.22735
10.6192
11.2108
11.1621
10.7902
10.3934
10.135
9.91906
9.55498
8.82789
7.65997
6.16811
4.57833
-1e-006
-9e-006
-2.9e-005
-7.6e-005
-0.000167
-0.000317
-0.00053
-0.000796
-0.001097
-0.001399
-0.000181
0.012261
0.029328
0.059216
0.097386
0.122995
0.106064
0.031159
-0.074223
-0.170535
-0.20749
-0.134745
0.064329
0.355523
0.620786
0.709284
0.501706
-0.023423
-0.766101
-1.44825
-1.74538
-1.30597
0.125293
2.64389
6.1567
10.3956
15.0072
19.663
24.12
28.2108
31.8867
35.1529
38.0346
40.5525
42.7387
44.6118
46.1929
47.5714
48.8367
50.0444
51.2234
52.328
53.2441
53.8187
53.8193
52.9819
51.078
47.9742
43.7806
38.8962
34.0488
30.1036
27.731
27.0856
27.5309
27.6752
25.8364
20.8455
12.8575
3.88077
-2.41939
-1.60476
10.0246
33.827
67.5965
105.559
139.52
161.037
163.881
146.098
110.763
65.321
19.5108
-17.3388
-38.8412
-43.0514
-32.5548
-13.1613
8.17842
25.4611
35.1978
36.8881
32.5224
25.3831
18.7495
14.848
14.3985
16.8614
20.9166
25.1294
28.4448
30.4602
31.3298
31.6178
31.9432
32.7414
34.1979
36.2131
38.4814
40.5943
42.2021
43.0761
43.2114
42.8382
42.3577
42.1998
42.7462
44.2528
46.7032
49.856
53.2662
56.4509
59.0366
60.9364
62.2538
63.3172
64.5259
66.1748
68.2965
70.6125
72.5573
73.4514
72.7171
70.0832
65.6667
59.9339
53.6114
47.4736
42.136
37.906
34.7422
32.3519
30.3613
28.4297
26.3949
24.2943
22.3457
20.8527
20.0681
20.1255
20.9237
22.2174
23.6311
24.7672
25.2955
24.9946
23.8166
21.9208
19.6232
17.3121
15.3905
14.0963
13.5286
13.5893
13.9543
14.1764
13.8289
12.6995
10.8466
8.59156
6.432
4.9384
4.53865
5.43451
7.46849
10.2177
13.129
15.6605
17.4078
18.2242
18.1511
17.3809
16.1854
14.8259
13.5228
12.3798
11.452
10.7655
10.3393
10.1321
10.0051
9.73434
9.11057
8.01074
6.45873
4.71471
3.28963
2.75209
3.57083
5.91849
9.5382
13.7068
17.5204
20.1506
21.081
20.3492
18.5052
16.4787
15.2551
15.5493
17.6171
21.109
25.2992
29.3809
32.6687
34.8776
36.1847
37.1107
38.3256
40.3203
43.2234
46.7715
50.4011
53.5096
55.6353
56.6293
56.7123
56.3312
55.9799
55.9766
56.3173
56.7919
57.0939
57.0979
56.9333
56.8985
57.2443
57.8786
58.2203
57.2441
53.9249
47.9372
40.3546
33.9054
32.4639
39.9684
58.9351
88.9715
126.15
163.45
192.376
205.191
197.354
169.088
125.463
75.1553
28.0287
-7.50845
-26.6947
-29.2902
-19.1623
-2.64721
13.6636
24.8642
28.8102
26.2047
19.8015
13.0259
8.7617
8.46176
11.9295
17.7107
23.8064
28.4272
30.4725
29.7352
26.8275
22.8685
19.1257
16.634
15.9743
17.2156
19.9438
23.5176
27.2443
30.5492
33.1869
35.2543
37.1597
39.3684
42.2072
45.6894
49.5249
53.2017
56.1478
57.9673
58.6593
58.6224
58.5379
59.0683
60.6125
63.0759
65.864
68.0887
68.8571
67.5641
64.1362
59.0362
53.0705
47.1006
41.6862
36.9752
32.8046
28.8164
24.7463
20.5992
16.7181
13.6155
11.8147
11.5922
12.7841
14.8379
17.0406
18.7455
19.5723
19.5333
18.9615
18.3867
18.2761
18.8289
19.9526
21.2994
22.4783
23.2183
23.4985
23.5875
23.9067
24.8215
26.4885
28.7628
31.2205
33.2554
34.312
34.1324
32.783
30.621
28.1622
25.8965
24.1341
22.9592
22.2492
21.8567
21.7566
22.0701
23.0626
24.9113
27.5578
30.6419
33.5341
35.4992
35.841
34.2786
31.0522
26.8028
22.4674
18.973
16.988
16.7596
18.121
20.5495
23.353
25.882
27.6928
28.6774
29.0504
29.2631
29.7976
31.1075
33.4116
36.5915
40.2463
43.7823
46.652
48.5171
49.3735
49.6161
49.8975
50.8995
53.0859
56.5297
60.8465
65.3107
69.0582
71.4991
72.4887
72.4532
72.2178
72.7204
74.5481
77.6385
81.0489
83.1984
82.4635
77.8531
69.8454
60.6926
54.142
54.5765
65.6345
88.6846
121.722
159.365
193.827
216.824
221.879
206.267
171.961
125.302
75.281
31.1183
-0.112688
-15.1145
-14.8195
-3.54783
12.7494
28.3642
39.3084
44.0565
43.3298
39.1551
33.8679
29.1971
25.9281
24.0282
23.0348
22.4269
21.9409
21.5749
21.4889
21.7584
22.2973
22.8836
23.2331
23.2175
22.8809
22.4501
22.177
22.2129
22.5696
23.1313
23.7373
24.3434
25.1053
26.3626
28.5015
31.7295
35.9152
40.5233
44.8025
47.9877
49.5864
49.5884
48.4894
47.1194
46.3077
46.5173
47.6422
49.0909
49.9183
49.232
46.5461
41.9917
36.2981
30.5094
25.7229
22.627
21.3225
21.3466
21.9102
22.1839
21.6272
20.1156
17.9579
15.7436
14.1538
13.6188
14.2664
15.9089
18.1691
20.5917
22.7809
24.4632
25.5044
25.9575
25.9661
25.7331
25.4192
25.1441
25.0025
25.0243
25.1389
25.292
25.4507
25.7301
26.3492
27.5828
29.7016
32.8107
36.8256
41.3987
45.9702
49.8769
52.5724
53.7061
53.2539
51.435
48.6136
45.2491
41.7031
38.2642
35.1018
32.3246
30.0143
28.2902
27.278
26.979
27.2551
27.7862
28.1317
27.8434
26.6554
24.528
21.78
19.0333
17.0862
16.6027
17.9033
20.8452
24.8201
28.9688
32.3541
34.2512
34.3512
32.8499
30.2502
27.1899
24.136
21.3475
18.8675
16.7302
15.1014
14.3625
14.9471
17.1288
20.6321
24.4273
26.9002
26.3711
21.9965
14.4946
6.44499
1.84067
4.91708
18.5474
42.8488
74.3945
106.634
131.585
142.098
134.17
108.386
69.8964
27.0643
-10.8493
-36.3694
-45.7639
-39.7231
-22.7318
-1.30214
18.1636
31.2239
36.2384
34.3012
28.3479
21.8323
17.5177
16.7853
19.5699
24.7374
30.7692
36.2802
40.3569
42.6323
43.2596
42.6698
41.4166
40.0585
39.0901
38.8838
39.6374
41.3889
43.9021
46.7093
49.3224
51.3426
52.648
53.4251
54.133
55.3644
57.6415
61.2126
65.9007
71.0847
75.8759
79.4357
81.1537
80.8214
78.7026
75.4262
71.7295
68.2496
65.2755
62.7344
60.3206
57.635
54.4117
50.6234
46.4869
42.3412
38.5518
35.3421
32.6921
30.3582
28.0086
25.4014
22.4574
19.3575
16.4569
14.2
12.9841
13.0039
14.1092
15.8471
17.5937
18.7285
18.8027
17.7353
15.8098
13.6429
12.0014
11.5975
12.7881
15.4791
19.1837
23.1214
26.5057
28.7487
29.6593
29.4827
28.7972
28.3597
28.7455
30.2125
32.5696
35.2444
37.4884
38.5922
38.113
36.06
32.9148
29.4563
26.5278
24.7908
24.5284
25.5784
27.4395
29.4145
30.8918
31.491
31.2207
30.4219
29.5972
29.1796
29.3993
30.1703
31.1613
31.944
32.1425
31.6377
30.6463
29.6696
29.1941
29.5842
30.863
32.6704
34.3577
35.1905
34.538
32.0948
27.9972
22.8364
17.5338
13.1049
10.4228
9.98003
11.6149
14.4215
16.867
17.1908
14.0666
7.2728
-1.80013
-10.0502
-13.2809
-7.39585
10.1288
38.8833
74.9482
111.404
139.941
153.07
146.369
120.04
79.0711
31.9759
-11.513
-43.1145
-58.0667
-56.1288
-41.074
-19.1143
3.18715
20.789
31.2951
34.977
34.0269
31.2767
29.093
28.7346
30.3098
33.1656
36.3797
39.2848
41.6478
43.6028
45.4569
47.451
49.6711
52.0642
54.5531
57.0929
59.736
62.5194
65.3717
68.1657
70.6499
72.5982
73.8729
74.5176
74.782
74.9409
75.1917
75.5358
75.7872
75.6811
75.0307
73.8209
72.3015
70.917
70.1327
70.2024
70.9403
71.7474
71.7577
70.0804
66.1221
59.8069
51.6474
42.598
33.7985
26.2344
20.4582
16.5216
14.0215
12.3181
10.7985
9.03615
6.88996
4.49777
2.20191
0.429798
-0.517729
-0.504964
0.429949
2.07508
4.06387
5.92321
7.21018
7.55778
6.8867
5.4227
3.70155
2.47042
2.4766
4.33111
8.20463
13.7713
20.2541
26.576
31.7213
35.013
36.2771
35.8486
34.511
33.2301
32.881
33.939
36.3884
39.75
43.2462
46.0671
47.5575
47.423
45.7778
43.1094
40.1022
37.4571
35.6467
34.8555
34.9683
35.6607
36.4827
37.0662
37.2048
36.8922
36.2936
35.5964
34.9086
34.1954
33.2714
31.9649
30.1147
27.7199
25.0093
22.4072
20.4074
19.403
19.5892
20.8338
22.7843
24.9744
26.8861
28.1588
28.6496
28.4867
27.9356
27.2441
26.5371
25.6817
24.4182
22.4889
19.8297
16.6703
13.5554
11.1591
9.96503
9.88975
10.2124
9.8435
7.90256
4.4623
1.03033
0.623606
7.00223
23.3913
50.9228
87.57
127.832
163.757
186.937
191.001
173.589
137.396
89.657
40.2553
-0.926497
-26.6605
-34.0618
-24.9357
-4.73074
19.4217
40.8634
55.0752
60.4389
58.0344
50.6904
41.7515
34.0446
29.2433
27.8487
29.4792
33.1129
37.5723
41.7788
44.881
46.3843
46.1684
44.4462
41.7128
38.6666
36.0086
34.2867
33.7648
34.3705
35.8205
37.7187
39.7067
41.5419
43.1492
44.5391
45.7735
46.816
47.5656
47.8814
47.6649
46.9474
45.9551
45.0414
44.5897
44.8418
45.8038
47.155
48.2917
48.5058
47.2061
44.1068
39.2643
33.1444
26.4312
19.9349
14.3528
10.1956
7.68785
6.77881
7.25589
8.8311
11.1341
13.7727
16.2997
18.2608
19.3209
19.2311
17.9685
15.7967
13.2215
10.9355
9.62928
9.7559
11.4273
14.3934
18.1139
21.8809
25.0699
27.2502
28.3096
28.4534
28.1175
27.7867
27.9046
28.6754
30.1102
31.9854
33.9011
35.4489
36.3328
36.4907
36.0865
35.4156
34.7779
34.3404
34.0426
33.6065
32.6409
30.8196
28.1029
24.8704
21.7723
19.6095
18.999
20.1802
22.8791
26.3516
29.6318
31.8128
32.3767
31.3652
29.286
26.9599
25.1764
24.3945
-1.1e-005
-0.000122
-0.000416
-0.000968
-0.001809
-0.002872
-0.003967
-0.004773
-0.004905
-0.004046
0.017545
0.194974
0.458322
0.680901
0.667747
0.233387
-0.635837
-1.71403
-2.51509
-2.42085
-0.955563
1.81966
5.05486
7.25799
6.7995
2.68698
-4.66976
-13.1232
-19.1056
-18.6904
-9.08091
10.058
35.9193
62.9143
84.1626
93.526
87.6685
67.2624
36.9258
3.92977
-23.9799
-40.8298
-44.0245
-34.7927
-17.3818
2.55294
19.7959
30.9628
35.0949
33.3742
28.1959
22.0707
16.8067
13.1594
10.9933
9.73372
8.84692
8.09171
7.57442
7.59335
8.38574
10.1
12.4455
14.8981
16.8388
17.7444
17.353
15.7074
13.1494
10.3128
7.97073
6.88713
7.60999
10.4091
15.2752
21.8812
29.7067
38.0667
46.264
53.6738
59.8056
64.3858
67.4031
69.0431
69.6901
69.768
69.6681
69.6413
69.695
69.6943
69.4425
68.7679
67.5977
65.9208
63.8293
61.4023
58.6885
55.6704
52.3411
48.8051
45.3401
42.371
40.3217
39.4678
39.7504
40.7365
41.7653
42.1154
41.2942
39.2468
36.3949
33.4434
31.1065
29.74
29.2031
28.9082
28.0564
25.9851
22.4738
17.9556
13.3664
9.83863
8.25947
8.90665
11.4161
14.8581
18.1333
20.2968
20.8834
20.0262
18.2858
16.3921
14.9062
13.9704
13.3533
12.6329
11.431
9.60682
7.35808
5.16949
3.63366
3.17595
3.88237
5.38232
7.02533
8.06222
7.93496
6.42942
3.7358
0.390342
-2.91156
-5.52325
-7.05121
-7.41948
-6.87064
-5.78711
-4.5142
-3.26573
-2.10442
-0.937824
0.40203
2.02418
3.89772
5.78863
7.37656
8.33195
8.41885
7.55321
5.82429
3.53505
1.14612
-0.871074
-2.19135
-2.88596
-3.4766
-4.85742
-8.00616
-13.4881
-20.9329
-28.6142
-33.5387
-32.0115
-20.8255
1.36163
32.9876
69.3453
103.321
126.981
133.818
120.783
89.4351
45.7981
-1.19974
-42.1527
-69.6469
-80.1597
-74.6101
-57.6203
-35.7284
-15.2173
-0.412982
7.1879
8.67153
6.68355
4.06091
2.8153
3.64331
6.03346
8.80284
10.8285
11.5773
11.1525
10.0982
8.98425
8.16644
7.66765
7.27564
6.77472
6.12007
5.57799
5.64371
6.77429
9.2032
12.7708
16.9672
21.1582
24.8028
27.6518
29.772
31.4811
33.1579
35.0563
37.2061
39.3906
41.272
42.6372
43.5506
44.2677
45.1263
46.325
47.7995
49.1704
49.8094
49.0628
46.6062
42.571
37.5742
32.5319
28.3817
25.7814
24.8403
25.161
25.9999
26.5578
26.2416
24.9216
22.9542
21.0118
19.8032
19.7901
21.1054
23.4018
26.058
28.3528
29.7459
30.0075
29.3092
28.1191
26.9986
26.4163
26.6554
27.7481
29.4815
31.4963
33.4409
35.0417
36.2123
36.9401
37.213
37.0567
36.5038
35.5873
34.4522
33.3123
32.4412
32.179
32.7769
34.2657
36.4097
38.6775
40.4282
41.0581
40.201
37.8273
34.3238
30.3607
26.7189
23.9968
22.4785
22.0687
22.38
22.9385
23.37
23.5921
23.766
24.2871
25.5617
27.8112
30.9419
34.5323
38.0174
40.7683
42.3037
42.3594
40.9164
38.0906
34.1451
29.4477
24.4969
19.9145
16.3851
14.5202
14.5179
15.9134
17.568
17.9882
16.0114
11.55
6.10537
2.83285
5.81821
18.6336
42.8147
76.5662
114.594
149.106
171.802
176.36
160.473
126.759
82.2268
36.3101
-1.75078
-25.41
-32.3669
-24.6779
-7.52335
12.6426
30.1771
41.6127
46.1267
45.104
40.9704
36.1376
32.1339
29.4607
27.8472
26.7485
25.8081
25.0663
24.9538
25.9688
28.3921
32.0586
36.3851
40.5262
43.6477
45.2063
45.0836
43.5538
41.2126
38.8241
37.0605
36.348
36.7697
38.1424
40.059
42.0233
43.5553
44.2764
44.0255
42.825
40.8993
38.5367
36.1001
33.9539
32.3933
31.5583
31.4008
31.669
31.9881
31.9233
31.0998
29.3494
26.6922
23.3803
19.8674
16.5953
13.9272
12.024
10.8378
10.2029
9.88761
9.69141
9.47566
9.23783
9.1096
9.18879
9.52001
9.97292
10.2394
9.89022
8.44957
5.48957
0.778392
-5.61378
-13.2657
-21.4149
-29.0928
-35.3643
-39.4813
-41.0231
-40.0447
-37.0472
-32.8272
-28.2316
-23.8951
-20.1287
-16.8729
-13.8426
-10.6719
-7.13559
-3.25327
0.673366
4.22248
7.0893
9.24934
11.0314
13.029
15.8754
20.0066
25.4694
31.8245
38.2817
43.9218
48.0185
50.3543
51.2466
51.4608
51.9485
53.5895
56.885
61.8371
67.9873
74.5293
80.5674
85.4104
88.6059
90.0524
89.9129
88.4756
86.0518
82.8821
79.0608
74.5647
69.3884
63.7384
58.0848
53.1483
49.6386
47.9458
47.8515
48.3402
47.8325
44.7829
38.4938
29.8882
21.7687
18.3128
23.8335
41.1267
70.0018
106.584
143.768
172.903
186.236
179.275
152.359
110.72
63.0362
19.0098
-13.3015
-29.4967
-29.6713
-17.7616
0.134353
17.863
30.929
37.3058
37.3381
32.9963
26.7198
20.4967
15.4435
11.8404
9.46852
8.06767
7.54801
8.01072
9.57811
12.1921
15.5508
19.1631
22.4531
24.9451
26.367
26.6919
26.0917
24.8708
23.3654
21.94
20.9888
20.9159
22.0432
24.5694
28.5023
33.6178
39.5576
45.8567
52.0671
57.7633
62.6299
66.4784
69.2257
70.8992
71.6474
71.7727
71.6813
71.7609
72.2264
73.0386
73.8291
74.0116
72.866
69.8249
64.6832
57.7601
49.9122
42.283
35.9966
31.8781
30.1958
30.5895
32.1745
33.799
34.4079
33.3334
30.4108
25.997
20.7947
15.6367
11.3022
8.32808
6.90187
6.87378
7.81102
9.15096
10.3435
10.9726
10.8854
10.2592
9.45371
9.0671
9.61166
11.379
14.3156
18.0203
21.8566
25.1162
27.2461
27.9826
27.4254
26.0132
24.3342
22.9079
22.0626
21.924
22.4258
23.4526
24.9131
26.8524
29.398
32.6977
36.7054
41.1457
45.5143
49.2373
51.8703
53.2541
53.5529
53.2637
53.0334
53.454
54.8988
57.3288
60.4655
63.9361
67.4052
70.7044
73.8465
76.9355
80.0789
83.2276
86.0977
88.1913
88.8939
87.7578
84.6226
79.7846
74.017
68.4585
64.2482
62.2279
62.5053
64.2875
65.9305
65.5031
61.59
54.0838
44.7201
37.061
35.6181
44.4067
65.2902
96.6668
133.147
166.576
187.989
190.195
170.044
129.602
75.8524
18.9274
-30.6758
-64.8905
-79.9881
-77.1495
-61.4999
-40.1504
-19.9876
-5.7127
1.0217
1.36859
-1.74504
-5.124
-6.43114
-4.80841
-0.823584
4.07881
8.3316
10.9128
11.6772
11.2965
10.9048
11.646
14.236
18.845
25.0211
31.9323
38.6539
44.4027
48.7793
51.7669
53.6951
55.0903
56.4846
58.3406
61.0016
64.6254
69.1727
74.456
80.1091
85.6483
90.5505
94.3585
96.7603
97.7782
97.7642
97.2801
96.9286
97.0574
97.6762
98.4174
98.6392
97.6626
95.027
90.6991
85.1181
79.064
73.3246
68.4689
64.6993
61.7392
58.9587
55.6169
51.1014
45.1709
38.073
30.4617
23.2
17.1631
12.9784
10.8592
10.573
11.495
12.7427
13.5411
13.3668
12.1289
10.174
8.14281
6.7887
6.67284
8.00618
10.4759
13.3624
15.7896
17.051
16.8097
15.2922
13.1867
11.3917
10.7039
11.5162
13.6155
16.2587
18.4432
19.3184
18.5089
16.2635
13.356
10.8491
9.74471
10.5761
13.2561
17.1319
21.2429
24.6554
26.7348
27.2971
26.5381
24.9705
23.2132
21.79
21.1553
21.5928
23.2887
26.3351
30.6881
36.1048
42.0905
48.0223
53.2797
57.4607
60.4607
62.4363
63.804
65.0193
66.3567
67.7633
68.8829
69.2401
68.4641
66.4967
63.5807
60.2399
57.145
55.0069
54.2842
55.1241
57.1968
59.6689
61.2983
60.6792
56.5976
48.6833
37.9575
27.1217
20.28
21.9502
35.5769
62.1032
98.9441
139.967
176.644
200.2
204.126
186.203
149.325
100.834
50.4812
7.78286
-20.5109
-31.9427
-28.432
-15.1422
1.53851
16.0173
24.9701
27.7239
25.6823
21.2878
16.8909
13.9617
12.8652
13.1007
13.8814
14.6631
15.3641
16.2821
17.8541
20.3969
23.9332
28.2345
32.8467
37.3061
41.2893
44.7046
47.6623
50.4063
53.1523
56.0141
59.0278
62.1339
65.1257
67.7877
69.9785
71.6979
73.1898
74.8596
77.0734
80.1487
84.0886
88.5053
92.6535
95.596
96.5164
95.0105
91.2362
85.8303
79.7227
73.8502
68.8195
64.7556
61.3394
58.02
54.2774
49.8658
44.9015
39.7641
34.8453
30.4362
26.6128
23.2521
20.2066
17.3962
14.925
13.0392
11.9947
11.8213
12.2413
12.6886
12.4718
11.109
8.53446
5.17026
1.86359
-0.401481
-0.831707
0.884259
4.40909
8.84245
13.0788
16.1544
17.505
17.1416
15.6114
13.8035
12.6463
12.7858
14.3547
17.0374
20.1602
22.9154
24.6377
25.0036
24.1369
22.5635
21.0367
20.2167
20.4752
21.7547
23.6639
25.5497
26.8282
27.1733
26.6341
25.6655
24.9559
25.1187
26.4313
28.778
31.6129
34.1589
35.7075
35.7964
34.4224
32.0313
29.3703
27.1907
26.0654
26.2223
27.5536
29.7612
32.5011
35.4975
38.5491
41.5366
44.2889
46.4585
47.6121
47.3392
45.5027
42.4466
38.9872
36.1423
34.7156
34.8574
35.7792
35.8342
33.0819
26.248
15.631
3.59446
-5.63318
-7.07402
3.29656
26.841
61.1441
99.9935
134.685
156.311
158.464
139.189
101.839
54.159
6.16284
-32.6618
-55.8651
-61.6052
-52.5843
-34.7102
-14.9424
0.887645
9.52791
10.7431
6.71063
0.758133
-4.0025
-5.69089
-4.00443
0.083548
4.97865
9.20377
11.9031
13.0587
13.2656
13.443
14.4517
16.754
20.3254
24.683
29.0472
32.645
34.9126
35.6158
34.9682
33.5732
32.2933
31.9749
33.2289
36.2806
40.8964
46.4793
52.2479
57.4688
61.6555
64.6842
66.7956
68.462
-1e-006
-1e-005
-3.2e-005
-8.4e-005
-0.000189
-0.000357
-0.000591
-0.000872
-0.00117
-0.00143
3.7e-005
0.013909
0.032607
0.067256
0.117624
0.139382
0.107672
0.001648
-0.142236
-0.2779
-0.325416
-0.227668
0.046912
0.442606
0.810503
0.941051
0.671794
-0.03766
-1.04182
-1.99754
-2.4323
-1.88081
-0.001913
3.28413
7.77944
12.9716
18.1593
22.6506
25.8883
27.5606
27.6833
26.5383
24.6435
22.5942
20.9244
20.0302
20.0548
20.9218
22.3607
24.0162
25.5378
26.6533
27.245
27.3571
27.1609
26.8711
26.6509
26.5831
26.6498
26.723
26.6323
26.2279
25.4267
24.2488
22.789
21.1409
19.4627
17.9225
16.7356
16.0652
15.9996
16.4994
17.4109
18.471
19.3501
19.7774
19.6757
19.2153
18.8067
18.9882
20.2733
22.9427
26.9697
31.9665
37.2535
41.9588
45.1984
46.3219
45.025
41.4587
36.2982
30.5597
25.4772
22.1356
21.0335
21.8059
23.149
23.1621
19.9974
12.7687
2.34599
-8.42771
-15.119
-12.9609
1.47078
28.6029
65.0013
103.729
135.899
153.073
149.807
125.476
84.7045
36.233
-9.58062
-43.6038
-60.3628
-59.2365
-44.1468
-21.8718
0.182498
16.2041
23.3594
22.0681
15.1234
6.33038
-0.865081
-4.391
-3.84694
-0.21722
4.83631
9.62249
12.9773
14.4623
14.2625
12.9098
11.0039
8.99665
7.10082
5.27751
3.37354
1.1867
-1.33372
-4.0337
-6.53423
-8.34899
-8.95031
-7.91038
-5.08589
-0.64339
4.96772
11.0576
16.9713
22.2607
26.7848
30.6572
34.1681
37.6578
41.342
45.2041
48.9648
52.1723
54.3984
55.3831
55.0637
53.6327
51.4512
48.9771
46.6083
44.6672
43.2595
42.2971
41.5625
40.7909
39.723
38.1685
36.1168
33.7312
31.3041
29.2074
27.7866
27.1945
27.3523
27.9434
28.5087
28.5105
27.503
25.2332
21.7849
17.5634
13.1757
9.28576
6.50643
5.23722
5.55224
7.17627
9.60677
12.1902
14.3014
15.5428
15.7905
15.1953
14.1372
13.1886
12.8907
13.6425
15.618
18.7437
22.7038
27.0085
31.0857
34.3888
36.5381
37.35
36.8936
35.4352
33.3788
31.1847
29.2497
27.8709
27.0943
26.734
26.4647
25.9018
24.7223
22.8198
20.3384
17.7216
15.6049
14.6598
15.3874
17.9591
22.1853
27.5553
33.42
39.1236
44.1928
48.3905
51.7417
54.4515
56.7431
58.692
60.2434
61.2403
61.4279
60.5759
58.627
55.6936
52.1331
48.5665
45.7057
44.1557
44.1695
45.5166
47.3492
48.4281
47.6334
44.6416
40.4581
37.5952
39.6371
50.1169
71.1297
101.934
138.447
173.689
199.375
208.275
196.498
165.028
119.731
69.9008
25.7383
-4.43596
-16.432
-11.0032
6.72295
29.2619
49.184
61.2141
63.3458
56.8252
45.0994
32.2213
21.513
14.6569
11.5762
11.0082
11.3313
11.2695
10.4062
9.07704
8.1626
8.65604
11.203
15.9117
22.3191
29.5845
36.7245
42.9176
47.6736
50.8493
52.6688
53.594
54.1586
54.8047
55.7596
57.0406
58.5124
59.9826
61.3381
62.5444
63.7315
65.1137
66.9402
69.3816
72.437
75.8946
79.3785
82.4162
84.495
85.1751
84.1621
81.4379
77.2407
72.0657
66.5116
61.2346
56.8192
53.6274
51.732
50.8945
50.601
50.1847
49.0442
46.775
43.2355
38.6466
33.5229
28.4943
24.1564
20.8753
18.7135
17.4837
16.816
16.3205
15.7559
15.0913
14.5236
14.4046
15.053
16.5989
18.8779
21.4334
23.6725
25.0515
25.222
24.1642
22.2068
19.8846
17.7326
16.0537
14.8191
13.7132
12.306
10.2095
7.28612
3.68106
-0.243242
-4.03455
-7.39769
-10.2821
-12.8968
-15.5481
-18.4942
-21.7672
-25.1301
-28.1721
-30.383
-31.4175
-31.1841
-29.9118
-28.0685
-26.1667
-24.5984
-23.5105
-22.8215
-22.2772
-21.6069
-20.6188
-19.3989
-18.2841
-17.794
-18.5203
-20.878
-24.9152
-30.1953
-35.8366
-40.7081
-43.7591
-44.4634
-43.1223
-40.8872
-39.3701
-39.9236
-42.8225
-46.6872
-48.475
-44.2177
-30.3144
-5.10602
29.8576
69.5859
106.509
132.417
140.723
128.593
97.9869
55.2377
9.39457
-30.2573
-56.7217
-66.9078
-62.0034
-46.6016
-26.8758
-8.64615
4.13957
10.1095
10.2237
6.881
2.79585
0.077605
-0.144812
2.22149
6.61111
12.1564
18.0251
23.5348
28.2453
31.8368
34.1234
35.1259
35.0519
34.3255
33.511
33.1711
33.7168
35.2905
37.8139
41.0212
44.5778
48.1975
51.7241
55.1171
58.4339
61.7652
65.1956
68.7649
72.49
76.3442
80.1741
83.6891
86.5062
88.2447
88.5448
87.2063
84.273
80.0478
75.0693
69.9822
65.319
61.3902
58.2317
55.5797
53.021
50.0955
46.4746
42.061
37.028
31.781
26.7788
22.3983
18.8937
16.3402
14.7028
13.8668
13.7816
14.4926
16.1324
18.8135
22.5042
26.9292
31.585
35.7693
38.7504
39.9601
39.1871
36.622
32.8886
28.8211
25.256
22.8219
21.783
22.0451
23.2302
24.8212
26.3443
27.4794
28.0835
28.167
27.7973
27.0182
25.845
24.278
22.3181
20.0033
17.4205
14.7287
12.1526
9.94962
8.35036
7.51661
7.54473
8.3991
9.91453
11.8098
13.7252
15.3607
16.5922
17.5478
18.5668
20.1656
22.7612
26.5718
31.4549
36.807
41.7393
45.2676
46.5868
45.2878
41.4678
35.6417
28.6737
21.4913
14.9824
9.76042
6.13949
4.12146
3.49651
3.93584
5.02509
6.47419
8.14854
10.1641
12.6752
15.6616
18.762
21.0513
21.2193
18.0148
10.923
0.913451
-9.20112
-15.0254
-11.6528
4.69044
35.0543
76.6921
123.149
165.604
195.141
205.356
194.336
165.376
126.113
86.3424
55.2398
38.9194
39.1082
53.1137
75.147
98.4017
116.932
127.095
127.939
120.69
107.767
91.7273
74.5909
57.5602
41.2072
25.793
11.6097
-0.938935
-11.3898
-19.4497
-25.1898
-29.0867
-31.868
-34.2515
-36.825
-39.8026
-43.0082
-45.894
-47.7906
-48.1253
-46.5347
-42.9961
-37.7612
-31.2746
-24.0787
-16.66
-9.41671
-2.58457
3.73418
9.45408
14.5472
19.0324
23.0441
26.8741
30.9198
35.6304
41.3111
48.0032
55.4228
62.929
69.673
74.794
77.7378
78.3827
77.0519
74.4314
71.3298
68.4451
66.1615
64.4807
63.0215
61.2127
58.5318
54.6908
49.7975
44.3036
38.9316
34.4511
31.4193
29.9737
29.7272
29.8564
29.3357
27.3134
23.3241
17.587
10.9554
4.78459
0.521228
-0.731663
1.40084
6.40872
13.0292
19.5193
24.1622
25.7392
23.8516
19.0577
12.6791
6.39127
1.76993
-0.137572
0.955395
4.59502
9.8084
15.4358
20.4807
24.3974
27.1808
29.1978
30.9615
32.8366
34.858
36.6961
37.7272
37.3092
35.0104
30.7868
25.0455
18.5431
12.1417
6.6061
2.45822
-0.087353
-1.04512
-0.624988
0.956052
3.50122
6.85376
10.8626
15.3473
20.1238
25.0459
30.1049
35.3452
40.8899
46.7846
52.8851
58.8119
63.9156
67.4821
69.0511
68.6983
67.0483
65.1404
64.0182
64.237
65.5172
66.7676
66.5655
63.9629
59.3941
55.1353
55.0154
63.35
83.2854
115.168
155.613
197.693
232.327
250.735
247.035
220.152
174.391
118.399
62.85
17.5512
-11.0981
-21.4334
-16.3984
-2.08725
14.4448
27.3545
33.4473
32.4687
26.3651
18.1549
10.6592
5.62481
3.49035
3.71158
5.30698
7.42792
9.65101
11.9456
14.4987
17.4555
20.819
24.4648
28.2014
31.9215
35.7235
39.8617
44.5783
50.0003
56.0087
62.2334
68.1302
73.1334
76.8242
78.9656
79.6252
79.1234
77.9562
76.6772
75.8176
75.7332
76.5659
78.2689
80.5217
82.8317
84.6284
85.4287
84.9524
83.218
80.525
77.3757
74.3045
71.733
69.8186
68.3868
67.0277
65.2463
62.6969
59.2838
55.1849
50.7936
46.61
43.0084
40.0732
37.6253
35.2559
32.5198
29.1177
25.0179
20.4649
15.8767
11.7589
8.53478
6.44522
5.51296
5.66725
6.81172
8.86724
11.8259
15.6578
20.2121
25.1655
30.0233
34.2356
37.267
38.8798
39.1238
38.414
37.3453
36.514
36.256
36.5344
36.9673
36.948
35.7893
33.0021
28.4707
22.5436
15.9793
9.76389
4.89238
2.13758
1.85791
3.89197
7.55027
11.8346
15.6617
18.1424
18.8014
17.6797
15.2742
12.3794
9.82954
8.22107
7.75163
8.20976
9.10332
9.88555
10.2214
10.1072
9.88174
10.0873
11.2894
13.7882
17.4563
21.82
26.1894
29.8819
32.4039
33.5557
33.4017
32.2139
30.3431
28.1693
25.9763
24.0006
22.2657
20.632
18.7987
16.4186
13.424
10.4525
9.13529
12.1092
22.4228
42.5768
73.3719
112.85
156.082
195.736
223.721
233.37
221.535
189.763
144.225
94.3288
50.2734
20.4374
9.33745
16.7458
38.2358
66.8726
95.3801
118.065
131.99
137.162
135.857
131.444
127.223
125.532
127.329
132.242
138.97
145.701
150.546
151.976
149.119
141.976
131.4
118.92
106.419
95.6955
88.0207
83.8369
82.7117
83.5987
85.2253
86.5925
87.3094
87.5974
88.0693
89.3286
91.5732
94.3696
96.6452
96.9965
94.1946
87.5786
77.3898
64.6548
50.9081
37.7453
26.5175
17.9585
12.1424
8.62689
6.74795
5.85335
5.49302
5.45198
5.67538
6.22902
7.17271
8.5278
10.2355
12.2195
14.385
16.6284
18.871
21.0129
22.9328
24.5351
25.789
26.7313
27.3638
27.6556
27.4789
26.693
25.1131
22.5655
19.0226
14.6427
9.78007
4.89928
0.462941
-3.18335
-5.89626
-7.72495
-8.88192
-9.63744
-10.2962
-11.1099
-12.2776
-13.9221
-16.2009
-19.2633
-23.2255
-28.076
-33.6637
-39.6826
-45.7453
-51.5482
-56.939
-62.081
-67.4716
-73.8317
-81.8532
-91.9992
-104.251
-118.109
-132.655
-146.74
-159.296
-169.575
-177.324
-182.785
-186.475
-1.2e-005
-0.00014
-0.000504
-0.00122
-0.002363
-0.003904
-0.005653
-0.007226
-0.008107
-0.007801
0.01596
0.220598
0.571198
0.913841
1.00652
0.602182
-0.389147
-1.78947
-3.057
-3.39589
-2.08841
1.02929
5.20695
8.75035
9.54654
5.92582
-2.27256
-13.0867
-22.5095
-25.4606
-17.4857
3.43941
35.6507
73.725
109.633
135.003
143.612
133.293
106.636
70.1971
32.5342
1.75196
-16.5535
-20.3958
-11.2557
7.09685
30.1417
54.0099
76.2463
95.8075
112.617
126.879
138.534
147.159
152.138
153.051
149.859
142.954
133.005
120.723
106.787
92.0272
77.2438
63.4122
51.6772
43.1949
38.8317
38.8347
42.6914
49.2372
56.9093
64.1325
69.637
72.652
72.9926
70.9223
67.0413
62.0802
56.7893
51.9065
48.1079
45.9683
45.8515
47.8322
51.5315
56.1264
60.4389
63.1394
63.0485
59.473
52.4163
42.5995
31.3289
20.1453
10.4387
3.19965
-1.19152
-2.97889
-2.86346
-1.75746
-0.475464
0.466566
0.887595
0.853006
0.581428
0.353036
0.334728
0.516822
0.779145
0.972796
1.05799
1.15103
1.46937
2.2684
3.71772
5.8186
8.33521
10.832
12.7994
13.8609
13.8854
13.1054
12.0352
11.3495
11.6553
13.3176
16.3153
20.2518
24.3848
27.8584
29.9102
30.0964
28.3588
25.0592
20.8935
16.7247
13.4346
11.6771
11.7105
13.3666
16.0749
19.0334
21.4312
22.6635
22.502
21.1801
19.2858
17.5897
16.7458
17.1316
18.7555
21.2756
24.1201
26.6052
28.1393
28.343
27.0729
24.3473
20.2975
15.1716
9.29522
3.05301
-3.11429
-8.74614
-13.3813
-16.6266
-18.3096
-18.6358
-18.2814
-18.3182
-19.9526
-24.0665
-30.6798
-38.4459
-44.565
-45.156
-36.2374
-15.0854
18.3815
60.8623
105.84
144.882
169.692
174.43
157.529
122.431
76.8245
30.563
-6.98006
-29.3333
-34.3951
-24.5332
-5.34056
16.4054
34.7925
46.2941
50.2055
48.1887
43.0951
37.7186
33.9351
32.3724
32.5939
33.6557
34.6304
34.9832
34.6878
34.0927
33.5838
33.4832
33.9078
34.7647
35.8912
37.0867
38.2204
39.2355
40.2044
41.2569
42.5323
44.1465
46.2365
48.9016
52.1924
56.0769
60.4194
64.9573
69.4119
73.4129
76.5225
78.3426
78.5461
76.9926
73.7293
69.0089
63.1903
56.7845
50.2832
43.9924
37.9835
32.1175
26.1637
19.9055
13.3069
6.59123
0.171857
-5.4188
-9.69803
-12.4385
-13.7188
-13.9682
-192.788
-183.508
-175.287
-168.587
-163.445
-159.576
-156.466
-153.492
-150.067
-145.711
-140.165
-133.366
-125.524
-117.02
-108.337
-99.9174
-92.0176
-84.6418
-77.5092
-70.1717
-62.1768
-53.1908
-43.1737
-32.4975
-21.8325
-12.0017
-3.69942
2.69483
7.25873
10.4305
12.9329
15.426
18.3536
21.7699
25.2954
28.3018
30.0989
30.1585
28.2668
24.5473
19.4942
13.8025
8.31207
3.82285
0.895238
-0.168419
0.660629
3.14378
6.89
11.4161
16.1868
20.7314
24.6289
27.4994
29.0001
28.8918
27.1621
24.1084
20.339
16.6698
13.9361
12.7857
13.5172
15.9719
19.5881
23.5267
26.9623
29.3151
30.3209
30.0242
28.7266
26.8509
24.8834
23.2746
22.3843
22.5076
23.8487
26.4738
30.2429
34.7516
39.4529
43.7073
46.9847
48.9608
49.5727
48.9601
47.3993
45.173
42.4892
39.451
36.1542
32.7261
29.3985
26.4416
24.0523
22.2192
20.6757
18.9803
16.7156
13.6356
9.83384
5.85374
2.65064
1.28456
2.60795
6.99737
14.2092
23.3995
33.3365
42.7096
50.4906
56.236
60.1445
62.7996
64.8048
66.3025
66.7425
65.0425
60.0353
51.2131
39.5438
27.812
20.2802
21.6749
35.5811
62.9371
101.054
143.756
182.601
208.979
216.467
202.676
169.978
124.85
76.1039
32.4758
0.466114
-17.0028
-20.7688
-14.6444
-3.74541
7.11183
14.6613
17.6815
16.7932
13.6779
10.2075
7.78257
6.98993
7.62606
9.00849
10.358
11.1668
11.2872
10.851
10.1692
9.53699
9.16002
9.03727
9.02735
8.9444
8.67625
8.25627
7.85214
7.61324
7.64559
7.92121
8.26892
8.44947
8.31038
7.86515
7.43499
7.5282
8.75468
11.5907
16.2475
22.5346
29.9125
37.6566
44.9674
51.1018
55.5322
57.9593
58.2388
56.4186
52.7454
47.6731
41.8615
36.1082
31.1602
27.5596
25.4811
24.7124
24.6906
24.7353
24.2645
23.0279
21.2142
19.349
18.0551
17.8298
18.8072
20.7457
23.1108
25.2624
26.6597
27.0432
26.5341
25.5619
24.6218
24.1134
24.218
24.8798
25.904
26.9553
27.75
28.1413
28.1297
27.8205
27.3673
26.8744
26.441
26.1234
25.9679
25.963
26.1068
26.3736
26.6581
26.8461
26.7567
26.1864
25.0605
23.4669
21.6803
20.1171
19.2207
19.3598
20.6766
22.9689
25.7555
28.366
30.1315
30.6823
30.0195
28.5174
26.8108
25.5562
25.2161
25.955
27.6045
29.7702
31.993
33.9665
35.5257
36.6759
37.4114
37.7168
37.5618
37.0235
36.2834
35.6028
35.2034
34.9995
34.4983
32.8217
29.0983
23.1101
15.9051
10.0485
9.19927
16.9954
35.6328
64.4691
99.4286
133.489
158.39
166.941
155.407
124.873
81.2086
33.4848
-8.52888
-37.113
-48.5512
-43.7457
-27.4321
-6.22949
13.6033
27.8398
35.1001
36.5212
34.6606
32.2701
31.1986
31.988
34.0914
36.4363
38.0603
38.5908
38.2425
37.6027
37.304
37.7571
38.9788
40.6846
42.4285
43.88
44.9595
45.8216
46.7606
48.0587
49.8569
52.0711
54.4412
56.592
58.2035
59.1537
59.5719
59.842
60.4105
61.638
63.6472
66.2236
68.8236
70.7972
71.5575
70.7142
68.3202
64.7667
60.6327
56.4338
52.4839
48.8277
45.2825
41.585
37.5262
33.0582
28.4096
23.9351
20.0256
16.9743
14.9294
13.9662
14.0671
15.1912
17.2922
20.3138
24.0455
28.1455
32.0976
35.303
37.2332
37.6096
36.5295
34.3909
31.8353
29.5998
28.2696
28.1486
29.1758
30.9483
32.8595
34.3107
34.8685
34.3404
32.8496
30.7699
28.6435
27.0062
26.1679
26.1393
26.6494
27.245
27.4181
26.8705
25.6032
23.9355
22.4463
21.7616
22.2772
23.9519
26.2914
28.5015
29.7978
29.6699
28.1081
25.6182
23.1206
21.5687
21.6045
23.2949
26.0851
29.0498
31.2164
31.8955
30.9412
28.8519
26.5382
25.0035
25.0276
26.8733
30.1754
34.0852
37.5534
39.5572
39.4428
37.0042
32.5049
26.5963
20.2258
14.3685
9.9276
7.5384
7.42316
9.19147
11.8304
13.8494
13.7681
10.7028
4.9972
-1.48456
-5.51668
-3.32037
8.16553
29.9225
59.8914
92.9816
122.041
139.696
140.482
122.584
88.6332
45.1692
0.96453
-35.373
-57.6296
-63.4551
-54.5775
-35.8743
-13.6583
6.22196
19.8946
26.1189
26.0203
22.2575
17.8195
15.043
15.071
17.7973
22.147
26.6789
30.0643
31.4599
30.7187
28.2815
25.0552
22.0909
20.3377
20.4359
22.6011
26.5906
31.8022
37.4515
42.7356
47.0176
49.9506
51.5029
51.9238
51.6726
51.3015
51.3022
52.0181
53.5502
55.7427
58.2367
60.4957
61.9899
62.3484
61.4733
59.5773
57.0791
54.4977
52.2569
50.5427
49.2073
47.8047
45.7097
42.3603
37.4767
31.1937
24.0797
17.0689
11.2468
7.46298
6.21154
7.42655
10.5158
14.5147
18.3866
21.2229
-2e-006
-2.2e-005
-7.5e-005
-0.000188
-0.000394
-0.000715
-0.00114
-0.001624
-0.002095
-0.002461
0.000868
0.031957
0.080437
0.144371
0.208287
0.226117
0.13436
-0.083041
-0.353296
-0.551971
-0.538783
-0.211034
0.410318
1.13823
1.65506
1.59104
0.710715
-0.923646
-2.83291
-4.21438
-4.18804
-2.04001
2.49254
9.13192
17.06
25.141
32.2619
37.631
40.9609
42.4476
42.6469
42.2346
41.7906
41.7305
42.1899
43.1525
44.5283
46.2308
48.1816
50.2925
52.4521
54.4497
56.0727
57.1746
57.6934
57.7014
57.3421
56.8131
56.1986
55.4316
54.2812
52.4836
49.8303
46.4148
42.677
39.3075
37.0378
36.3456
37.1651
38.6623
39.3564
37.5973
32.333
23.837
14.14
6.83703
6.26185
16.0184
37.5592
69.0533
105.218
138.346
160.265
164.758
149.487
116.915
73.7937
29.3608
-7.19831
-29.2425
-34.2847
-24.334
-4.80007
17.4772
36.2324
47.4418
50.0509
45.6388
37.371
28.6889
22.2296
19.2329
19.5658
22.2277
25.8713
29.3494
31.9306
33.4006
33.8733
33.6337
32.9115
31.9168
30.8021
29.786
29.1191
29.0142
29.6184
30.9223
32.7643
34.8942
37.0159
38.9439
40.7037
42.5573
44.8564
47.8879
51.7306
56.1293
60.5695
64.3732
66.9286
67.8375
67.0557
64.8722
61.7693
58.2708
54.7543
51.3657
48.0394
44.5989
40.856
36.6494
32.0075
27.1354
22.3335
17.9277
14.2115
11.3834
9.52042
8.58073
8.33218
8.46229
8.60829
8.4756
7.88186
6.82369
5.47642
4.17357
3.306
3.23186
4.11179
5.92752
8.47075
11.4235
14.475
17.3241
19.7212
21.4836
22.4793
22.6586
21.9948
20.619
18.8135
17.0051
15.6724
15.1792
15.5975
16.691
17.981
18.8887
18.9736
18.1323
16.6956
15.3313
14.7919
15.6402
18.022
21.5894
25.624
29.2801
31.8691
33.0339
32.836
31.6799
30.1066
28.5621
27.2728
26.2534
25.3877
24.6141
23.8934
23.2631
22.8257
22.5868
22.4582
22.2356
21.7056
20.7899
19.5912
18.3854
17.4691
17.0498
17.1314
17.4826
17.8268
17.9215
17.7244
17.4993
17.7216
18.8439
21.0383
24.0479
27.2234
29.6287
30.3817
28.9113
25.1408
19.5479
13.1252
7.14339
2.84704
1.20486
2.66991
6.98602
13.1227
19.3266
23.5023
23.8218
19.4606
11.2532
1.92262
-4.27698
-2.68593
10.2929
35.6146
70.6038
109.067
142.581
162.743
163.683
143.919
107.041
60.8942
15.3543
-20.3629
-40.2264
-42.7355
-30.8967
-10.7851
10.601
27.4111
36.4001
37.2957
32.222
24.5133
17.3459
12.8369
11.6862
13.4088
16.88
20.8736
24.4773
27.2478
29.1394
30.3573
31.1747
31.8378
32.4971
33.2769
34.291
35.5472
37.0009
38.5307
39.9892
41.3135
42.5312
43.7588
45.2006
47.064
49.4779
52.3745
55.5285
58.5377
60.9941
62.5363
62.9161
62.0538
60.0281
57.1016
53.6869
50.2489
47.1893
44.8007
43.1706
42.173
41.3815
40.2387
38.1525
34.709
29.8667
24.0125
17.878
12.3802
8.43981
6.66756
7.21108
9.72466
13.4578
17.4512
20.8985
23.2635
24.4
24.5147
24.0554
23.55
23.4485
23.9867
25.1843
26.8683
28.783
30.5651
31.8963
32.5068
32.2331
31.0559
29.1779
26.9018
24.6043
22.6839
21.4546
21.0831
21.5151
22.525
23.8238
25.1575
26.3667
27.4151
28.3836
29.4179
30.6496
32.1294
33.7004
35.1432
36.1812
36.624
36.3479
35.3579
33.7822
31.833
29.8274
28.111
26.9745
26.6448
27.3243
29.0422
31.6626
34.8331
38.069
40.7457
42.3254
42.411
40.8488
37.7968
33.7086
29.281
25.332
22.5523
21.4499
22.1772
24.5602
28.0847
32.0313
35.6671
38.4237
40.0158
40.5342
40.3453
39.899
39.6047
39.6868
40.0932
40.5087
40.5187
39.7364
38.0041
35.3872
32.1885
28.8982
26.0684
24.2226
23.6903
24.3689
25.7494
26.884
26.5929
23.8765
18.4448
11.233
4.63527
2.23028
7.82801
24.11
51.3546
86.649
123.972
155.409
173.161
171.903
150.519
112.725
66.1922
20.4837
-15.587
-36.3264
-40.4121
-30.8232
-13.5006
4.82346
18.6656
25.2061
24.582
19.1268
12.13
6.49662
3.90058
4.47673
7.23645
10.7373
13.8076
15.9454
17.3091
18.4461
19.9024
21.8533
24.1206
26.1699
27.4292
27.5544
26.5781
24.9739
23.4885
22.8251
23.4889
25.6586
29.1402
33.4961
38.1671
42.6411
46.5748
49.8653
52.5624
54.8014
56.733
58.5321
60.3426
62.2599
64.2734
66.2215
67.8142
68.6168
68.1407
65.9521
61.8613
56.0546
49.1532
42.0769
35.7895
31.0628
28.2353
27.132
27.1667
27.5099
27.4146
26.4325
24.5955
22.2749
19.9989
18.2502
17.2962
17.0923
17.3418
17.6705
17.8004
17.64
17.3427
17.175
17.381
17.9584
18.7268
19.3343
19.4533
18.9106
17.8546
16.7578
16.2208
16.7945
18.6812
21.5949
24.8652
27.6508
29.1897
29.1175
27.571
25.1676
22.8045
21.3334
21.2633
22.5492
24.6892
26.9501
28.6141
29.2537
28.8656
27.8472
26.818
26.3615
26.7379
27.7742
28.9405
29.5214
28.9135
26.8365
23.4923
19.5358
15.9317
13.6593
13.3886
15.3216
19.1207
24.0046
28.9665
33.004
35.4137
35.9201
34.7252
32.4549
29.9368
27.9151
26.977
27.3652
28.9336
31.1979
33.4982
35.1909
35.815
35.2951
33.9336
32.2883
31.1237
31.1474
32.7313
35.8053
39.7979
43.7942
46.8471
48.2843
47.8576
45.8208
42.8369
39.7398
37.2255
35.7054
35.2784
35.8114
37.0959
38.823
40.5404
41.4973
40.6498
36.8673
29.4499
18.7136
6.5505
-3.596
-7.33795
-0.674885
18.3821
48.558
84.8754
119.451
143.504
149.794
134.972
100.794
53.9024
4.03946
-38.7419
-66.8059
-76.8295
-70.2449
-52.3136
-30.0542
-10.0113
3.50482
9.17549
8.33915
3.8459
-1.30299
-4.94426
-6.18846
-5.3032
-3.12174
-0.50567
2.08279
4.66176
7.57007
11.0865
15.1979
19.5496
23.5225
26.453
27.8203
27.4125
25.3895
22.2937
18.8639
15.8987
14.1143
14.0086
15.7485
19.1809
23.8082
28.9291
33.7891
37.8097
40.6951
42.4618
43.4369
44.0662
44.7233
45.6011
46.5821
47.287
47.2464
46.1134
43.8052
40.5037
36.6625
32.8078
29.416
26.7378
24.768
23.3188
22.1868
21.3108
20.8245
21.0004
22.0736
24.1295
26.9731
30.1166
32.9218
34.8329
35.5598
35.2293
34.2781
33.2738
32.6135
32.335
32.1401
31.5053
29.9317
27.2476
23.7276
20.1009
17.3092
16.143
16.9527
19.4977
23.0318
26.6065
29.3717
30.8461
31.0488
30.4587
29.7526
29.5002
29.9945
31.1438
32.6084
33.9861
35.0173
35.6213
35.9217
36.1109
36.3255
36.4874
36.3685
35.6788
34.204
31.9913
29.3185
26.6695
24.5855
23.5079
23.6763
25.0344
27.2
29.5821
31.6102
32.7712
32.7512
31.5779
29.581
27.3889
25.721
25.2489
26.404
29.1949
33.3056
38.1486
43.0468
47.441
51.0082
53.7185
55.7595
57.3881
58.7275
59.7149
60.1728
59.8692
58.6661
56.5928
53.8533
50.8123
47.9174
45.6022
44.2351
43.9777
44.7661
46.1636
47.3219
47.0775
44.3061
38.5008
30.3932
22.2234
17.5651
20.4573
34.0179
59.0131
92.8263
129.517
160.993
179.136
178.278
157.069
119.144
72.1981
25.9687
-10.5625
-31.6112
-35.8806
-26.4462
-9.28811
8.81499
22.3988
28.6538
27.6907
21.7991
14.2195
7.82619
4.24146
3.62996
5.05203
7.17103
8.86238
9.5465
9.27432
8.56969
8.04534
8.21308
9.27754
11.2067
13.7785
16.7221
19.7708
22.7477
25.5294
28.1034
30.5651
33.0729
35.7818
38.8088
42.2023
45.8628
49.6209
53.2868
56.7329
59.9912
63.2992
66.9334
71.0373
75.5026
79.8632
83.3246
85.0158
84.2803
80.9224
75.3969
68.7364
62.2541
57.0634
53.7699
52.2643
51.8511
51.5714
50.5761
48.5472
45.7455
42.858
40.6665
39.6485
39.6949
40.1493
40.1285
38.8338
35.9381
31.717
26.9966
22.8088
19.9869
18.7899
18.8729
19.3925
19.3745
18.0752
15.2682
11.353
7.23118
3.99543
2.55213
3.27481
5.94003
9.87072
14.1229
17.8759
20.6215
22.2966
23.2266
23.9519
24.9234
26.266
27.7679
28.9219
29.1398
28.0095
25.5162
22.0154
18.1951
14.8711
12.7336
12.0585
12.7075
14.121
15.5962
16.5172
16.5465
15.7761
14.678
13.9329
14.2185
15.991
19.2625
23.6385
28.445
32.903
36.3583
38.4373
39.2149
39.1468
38.8556
38.8739
39.4352
40.3705
41.1934
41.3311
40.3911
38.3714
35.769
33.3431
31.7576
31.1142
30.8501
29.9436
27.4634
23.3457
18.8661
16.7152
20.3672
32.8032
55.0483
85.1344
117.931
146.117
162.099
160.344
139.249
101.932
55.6215
9.74709
-26.6725
-47.488
-50.887
-39.575
-19.4697
2.34329
19.7411
29.1814
30.2235
25.0521
17.265
10.4303
6.93171
7.45949
11.1684
16.258
20.7672
23.1632
22.801
19.9533
15.5773
10.9384
7.22173
5.27529
5.49149
7.76328
11.6562
16.5183
21.7421
26.8581
31.6376
35.9667
39.8136
43.1538
45.9244
48.0723
49.5954
50.5854
51.2753
51.9698
52.9289
54.2877
55.9353
57.5856
58.8666
59.5098
59.4103
58.5896
57.2194
55.4422
53.2866
50.605
47.1663
42.7777
37.4816
31.6432
25.8771
20.9071
17.3304
15.4338
15.0958
15.8048
16.919
17.828
18.2238
18.1307
17.841
17.6954
17.9167
18.4714
19.0601
19.2124
18.4909
16.7002
14.0631
11.1086
8.54806
7.05491
7.02577
8.46537
11.0306
14.1136
17.0572
19.3154
20.6287
21.0054
20.6567
19.8545
18.8631
-2e-006
-2.5e-005
-8.9e-005
-0.000224
-0.000449
-0.000782
-0.001211
-0.001691
-0.002154
-0.002507
0.00122
0.036725
0.098646
0.173341
0.212503
0.191055
0.071003
-0.137771
-0.353925
-0.487317
-0.416628
-0.07577
0.485524
1.0646
1.38124
1.166
0.301824
-1.09101
-2.59936
-3.56938
-3.30002
-1.16747
3.10058
9.37131
17.0889
25.345
33.1136
39.4396
43.6314
45.4604
45.2428
43.757
41.9403
40.6141
40.1311
40.183
39.8492
38.0213
33.9736
28.0896
22.2393
19.56
23.6618
37.3051
61.0455
92.3735
125.775
153.825
169.146
166.628
145.17
108.312
63.369
19.5287
-14.725
-33.777
-36.1927
-24.684
-4.82573
16.7962
34.5959
45.3117
48.346
45.2512
38.7734
31.6842
25.9944
22.6277
21.5418
22.2059
23.9601
26.3579
29.1326
32.1319
35.1718
37.9232
40.012
41.0947
40.9992
39.8614
38.163
36.5988
35.787
36.128
37.6932
40.197
43.1051
45.8682
48.0388
49.4642
50.356
51.1384
52.329
54.248
56.9492
60.151
63.3541
65.9612
67.42
67.3887
65.8249
62.9471
59.1057
54.7455
50.2496
45.9292
42.0398
38.6909
35.9221
33.6393
31.6823
29.8396
27.8669
25.5219
22.6749
19.3282
15.6749
12.0554
8.81338
6.29366
4.72506
4.15913
4.44066
5.26685
6.2641
7.07358
7.52405
7.61268
7.46401
7.34299
7.59009
8.48849
10.1993
12.705
15.8259
19.2609
22.6423
25.6347
27.9288
29.3468
29.9236
29.8738
29.5802
29.4661
29.9155
31.1304
33.0724
35.3999
37.5165
38.7464
38.5742
36.816
33.6789
29.7914
25.9606
22.9972
21.4752
21.4792
22.6391
24.2104
25.3894
25.5766
24.6146
22.833
21.0007
20.0946
20.9849
24.138
29.3539
35.8067
42.2849
47.4927
50.4333
50.6992
48.552
44.7987
40.5115
36.6724
33.7802
31.859
30.6078
29.5856
28.4269
26.9551
25.0692
22.6673
19.5388
15.5055
10.7015
6.02372
3.41998
5.66205
15.6152
35.0603
63.5686
97.8178
131.832
158.191
169.982
162.903
136.82
96.099
48.5547
3.36189
-31.3859
-50.7291
-53.8274
-43.692
-25.8339
-6.3538
9.83112
20.0491
23.9923
23.1099
19.627
15.6789
12.7006
11.297
11.4445
12.7729
14.9172
17.5762
20.4614
23.2891
25.7743
27.7175
29.076
30.0259
30.8601
31.8721
33.2418
34.9644
36.8178
38.5457
39.9839
41.1923
42.4483
44.1243
46.4652
49.4693
52.8765
56.212
59.0336
61.0028
62.0692
62.4577
62.5569
62.7537
63.2301
63.8987
64.4804
64.6157
63.983
62.2876
59.4264
55.4598
50.6043
45.2199
39.7051
34.5564
30.2646
27.2529
25.7052
25.5044
26.2152
27.1749
27.6881
27.244
25.6752
23.1997
20.3537
17.8522
16.2666
15.8736
16.5791
17.9385
19.3788
20.3665
20.584
19.9551
18.6775
17.1329
15.7291
14.8151
14.6367
15.2991
16.8209
19.0959
21.842
24.6586
27.096
28.7505
29.3581
28.8835
27.5438
25.7732
24.1142
23.0525
22.8837
23.5763
24.8478
26.2734
27.4247
27.9401
27.6461
26.6552
25.2715
23.8836
22.785
22.1165
21.7889
21.5463
21.0681
20.0855
18.5606
16.6872
14.8974
13.7568
13.7754
15.2504
18.1023
21.922
26.0323
29.6712
32.1867
33.2207
32.8665
31.6045
30.1757
29.3003
29.4633
30.7418
32.7048
34.5346
35.2501
34.0681
30.7824
25.8598
20.3423
15.4451
12.0884
10.4439
9.6862
8.30378
4.80482
-1.34056
-8.92837
-14.8871
-14.9608
-5.17009
16.4929
48.6757
86.2768
121.316
144.999
150.375
134.609
100.051
53.7953
5.70757
-34.3715
-59.3725
-66.6727
-58.4141
-40.2432
-19.2332
-1.56372
9.09276
12.1016
9.32152
3.85342
-1.31043
-4.30637
-4.72724
-3.29247
-1.17665
0.726268
2.11136
3.2949
4.89493
7.33141
10.6357
14.3604
17.7984
20.2771
21.4932
21.723
21.6779
22.2812
24.2493
27.8891
32.9766
38.8555
44.6954
49.7713
53.7051
56.5456
58.6789
60.539
62.381
64.1616
65.5403
66.1236
65.6206
64.0633
61.8097
59.5172
57.7776
56.9199
56.8586
57.1333
57.1052
56.2577
54.388
51.7217
48.7934
46.2581
44.6258
43.9942
44.039
44.1652
43.7585
42.4396
40.1949
37.3867
34.6143
32.4764
31.3292
31.2004
31.7681
32.4776
32.829
32.5133
31.5465
30.1996
28.9069
28.1314
28.1711
29.049
30.5158
32.1232
33.3715
33.8673
33.4288
32.1244
30.2547
28.3322
26.9242
26.4762
27.1352
28.7775
30.9433
33.0105
34.3353
34.4335
33.111
30.6219
27.4992
24.4573
22.1343
20.9014
20.79
21.4894
22.4801
23.2075
23.2902
22.6646
21.6002
20.516
19.8347
19.7855
20.3817
21.3834
22.4387
23.2167
23.5882
23.6351
23.6435
23.9729
24.8317
26.2172
27.9521
29.7221
31.2838
32.5219
33.5485
34.6187
36.0219
37.8915
40.0972
42.2661
43.8887
44.5388
43.9915
42.2667
39.6138
36.5597
33.7626
31.8635
31.218
31.8737
33.3401
34.587
34.3257
31.4203
25.5197
17.6843
10.5529
7.97867
13.9751
31.2621
59.8553
96.2847
133.888
164.168
179.117
173.646
147.316
104.804
54.7205
7.25939
-28.5537
-47.2977
-48.3571
-35.5599
-15.5653
4.45976
18.9938
25.4545
24.3648
18.494
11.4625
6.34727
4.7569
6.60629
10.5191
14.6714
17.5016
18.2579
17.0449
14.6411
12.0709
10.2324
9.63046
10.23
11.577
13.0917
14.3021
15.0425
15.4409
15.8933
16.8713
18.7037
21.4159
24.682
27.9744
30.7717
32.861
34.4335
36.0786
38.5464
42.4343
47.8647
54.3343
60.7343
65.6277
67.7865
66.5572
62.1766
55.6798
48.646
42.7064
39.0269
37.9154
38.7867
40.3909
41.2917
40.387
37.3021
32.4911
27.0202
22.2074
19.1894
18.473
19.8266
22.3849
25.0608
26.9028
27.4049
26.6007
25.0092
23.3597
22.283
22.1253
22.7679
23.7568
24.5055
24.5473
23.6802
22.0209
19.9664
18.0967
16.9753
17.03
18.3917
20.9163
24.1765
27.626
30.6756
32.7894
33.6308
33.1351
31.5193
29.2478
26.9039
24.985
23.8535
23.6264
24.1815
25.147
26.0985
26.6663
26.6366
25.9855
24.8523
23.4558
22.0237
20.7367
19.7489
19.1386
18.8981
19.0595
19.6917
20.814
22.3821
24.2655
26.2674
28.1629
29.7385
30.8114
31.3324
31.3898
31.1991
31.0957
31.3884
32.3328
34.0428
36.4598
39.3489
42.2502
44.58
45.7925
45.4575
43.5185
40.2732
36.4032
32.835
30.3918
29.4944
29.793
30.1874
29.1708
25.4711
18.8149
10.537
3.63
2.12992
9.85865
28.8995
58.2735
93.5313
127.435
151.728
159.458
147.119
115.939
71.7479
23.4961
-19.1982
-48.6708
-61.1101
-57.1665
-41.276
-19.9394
0.403565
15.0957
22.2311
22.5861
18.7068
13.6659
9.95162
8.8514
10.3718
13.6086
17.2791
20.2569
21.9173
22.1802
21.4404
20.3291
19.464
19.3658
20.3123
22.3323
25.1852
28.4497
31.6668
34.4104
36.4841
37.9233
38.9639
39.999
41.4572
43.5976
46.4203
49.6754
52.9013
55.6173
57.4819
58.386
58.5197
58.3264
58.3264
58.9156
60.1344
61.673
62.9153
63.1447
61.769
58.4944
53.5048
47.3814
40.9301
34.954
30.0301
26.3335
23.6952
21.7667
20.1704
18.7064
17.3907
16.4406
16.1199
16.5982
17.7747
19.2398
20.4275
20.8237
20.1316
18.4279
16.0825
13.7147
11.9786
11.3276
11.8785
13.3819
15.3154
17.0549
18.1224
18.2662
17.5081
16.1617
14.7199
13.703
13.4899
14.2837
16.0245
18.4647
21.2243
23.8354
25.8344
26.881
26.7951
25.6001
23.4893
20.8145
18.0626
15.6918
14.088
13.3821
13.49
14.0879
14.7216
14.9859
14.7123
13.9573
13.0979
12.7156
13.3546
15.3317
18.5869
22.6684
26.8699
30.4497
32.8416
33.8235
33.552
32.5188
31.3409
30.5178
30.1948
30.1924
30.0623
29.3453
27.7626
25.4259
22.8497
20.7187
19.55
19.2668
19.0674
17.6271
13.6565
6.73282
-2.04893
-9.82266
-12.4616
-5.79304
12.8181
43.019
80.7679
118.853
148.533
161.917
154.363
126.041
82.195
31.7837
-14.8964
-49.0213
-65.497
-63.9864
-48.4909
-25.6912
-2.70258
14.8831
24.3061
25.8508
22.0179
16.2179
11.4743
9.53755
10.7081
14.1111
18.3108
21.9676
24.2815
25.1405
25.0131
24.6445
24.7254
25.7036
27.6637
30.4059
33.5079
36.4788
38.9063
40.5708
41.4603
41.7196
41.6129
41.4402
41.4632
41.9117
42.8975
44.4273
46.4307
48.7578
51.2284
53.5881
55.5675
56.9214
57.4248
56.9356
55.3709
52.7645
49.3007
45.261
40.9867
36.8808
33.2404
30.2561
27.9499
26.1898
24.7214
23.2607
21.5622
19.5715
17.409
15.3626
13.7878
12.9729
13.0846
14.0912
15.7429
17.6396
19.3445
20.5554
21.1433
21.1634
20.7918
20.2032
19.525
18.7964
17.9923
17.1011
16.2044
15.5428
15.4945
16.4078
18.4343
21.4454
25.0284
28.6072
31.6002
33.6059
34.5391
34.6728
34.4852
34.4099
34.6493
35.0708
35.2142
34.575
32.7283
29.6245
25.7209
21.8928
19.1707
18.4025
19.9264
23.4384
28.074
32.6412
35.9827
37.3491
36.621
34.3555
31.5239
29.1862
28.1403
28.6198
30.3518
32.6705
34.8004
36.1927
36.6595
36.4928
36.2525
36.4926
37.4813
39.1538
41.1252
42.9067
44.1426
44.7597
45.0368
45.4407
46.4087
47.9995
49.7843
50.9351
50.5371
47.9633
43.2563
37.2572
31.3865
27.2085
25.7789
27.062
29.8095
31.9032
31.2459
26.8859
19.7676
12.9233
10.778
17.7294
36.3422
65.8773
101.814
136.61
161.666
169.898
157.895
127.134
83.7482
36.8791
-3.90401
-31.2112
-3e-006
-2.8e-005
-9.8e-005
-0.000248
-0.000516
-0.00093
-0.001483
-0.002134
-0.002804
-0.00338
0.000834
0.041358
0.104802
0.190911
0.268429
0.283358
0.171402
-0.066203
-0.358993
-0.583943
-0.578561
-0.254091
0.366032
1.11685
1.6584
1.62502
0.775434
-0.822704
-2.75586
-4.26991
-4.46242
-2.50615
2.1058
9.41454
18.9545
29.8531
41.0112
51.3215
59.8686
66.0271
69.4996
70.313
68.7698
65.4196
60.9063
55.8877
50.9899
46.6502
43.0727
40.198
37.737
35.2941
32.5087
29.187
25.3395
21.1999
17.1493
13.6204
10.9965
9.5367
9.28815
10.1884
12.009
14.488
17.2892
20.0563
22.4568
24.2684
25.3942
25.8872
25.9009
25.6091
25.1917
24.8064
24.46
24.0814
23.5949
23.0013
22.3441
21.7543
21.351
21.1784
21.1866
21.2349
21.1447
20.7553
20.0287
19.0402
17.9883
17.106
16.5622
16.3821
16.4741
16.6917
16.848
16.7691
16.406
15.8103
15.1075
14.4354
13.8754
13.451
13.1495
12.9764
12.9184
12.9951
13.2055
13.5325
13.8993
14.1516
14.0588
13.4213
12.1883
10.5343
8.7841
7.38648
6.76665
7.19805
8.68279
10.9535
13.5333
15.8623
17.5081
18.2947
18.3139
17.8375
17.2079
16.6973
16.4343
16.4057
16.5121
16.7233
17.1637
18.1318
19.9467
22.7458
26.3259
30.0554
33.042
34.3781
33.4583
30.196
25.1954
19.5976
14.8127
12.0983
12.1756
15.0352
19.8458
25.0807
28.8471
29.3721
25.6469
17.9747
8.22295
-0.242541
-3.23603
3.17785
21.3337
50.7711
87.7172
125.491
155.972
171.711
167.974
144.381
105.188
58.2889
13.1353
-21.7671
-41.024
-43.5179
-32.2355
-12.9594
7.73981
24.3612
33.7385
35.404
31.1292
23.8547
16.4877
11.1328
8.70527
9.05941
11.3512
14.5348
17.67
20.1294
21.696
22.4596
22.6494
22.5233
22.2925
22.0645
21.871
21.6882
21.4723
21.2684
21.2434
21.6372
22.6458
24.3323
26.587
29.1683
31.7485
34.0425
35.9106
37.4246
38.7677
40.1718
41.7517
43.4469
45.0234
46.2149
46.7426
46.4347
45.2518
43.2315
40.4483
36.9915
32.9653
28.515
23.9121
19.581
16.0538
13.8135
13.1103
13.8513
15.6157
17.7532
19.5081
20.3088
19.9758
18.6901
16.9637
15.4449
14.6456
14.7757
15.7252
17.1688
18.631
19.7502
20.3736
20.6107
20.7265
21.0028
21.5781
22.4053
23.2681
23.92
24.1259
23.8318
23.1608
22.3845
21.8112
21.6274
21.881
22.4957
23.3136
24.2156
25.1357
26.0947
27.1038
28.1621
29.2185
30.0927
30.5432
30.3461
29.4142
27.8222
25.8245
23.7176
21.8142
20.4051
19.669
19.6915
20.4647
21.9246
23.96
26.4248
29.0108
31.3515
33.0981
33.9274
33.6877
32.4482
30.4651
28.0831
25.6831
23.5435
21.8024
20.4796
19.5534
19.1373
19.4461
20.779
23.4323
27.5443
33.0102
39.4249
46.0864
52.1598
56.8659
59.6783
60.4658
59.4567
57.205
54.3923
51.6598
49.4766
47.966
46.992
46.1894
45.2307
44.0125
42.7224
41.738
41.3953
41.7091
42.1634
41.7432
39.1959
33.7467
25.8513
17.5993
12.6269
15.2261
28.9559
55.068
91.4081
132.167
168.985
193.057
197.628
180.127
143.133
93.8201
42.0501
-2.25141
-31.7856
-43.5311
-39.0876
-23.6419
-3.9338
13.8557
25.6975
30.4024
29.2456
24.9983
20.6042
18.1343
18.3236
20.6624
23.9262
26.8474
28.5965
28.9812
28.3709
27.4619
26.9773
27.3449
28.6647
30.6874
33.0507
35.4273
37.6671
39.8075
41.9918
44.3897
47.0935
50.0741
53.1507
56.0753
58.6881
60.974
63.0465
65.0266
66.9634
68.7685
70.2844
71.298
71.675
71.4766
70.9567
70.4301
70.0946
69.856
69.3474
68.0867
65.6794
62.0004
57.342
52.3175
47.6602
43.9568
41.3912
39.6588
38.1229
36.1065
33.1847
29.3906
25.1865
21.3252
18.5541
17.3689
17.8327
19.5345
21.7188
23.5938
24.5653
24.3958
23.2059
21.4394
19.7156
18.6435
18.6161
19.6908
21.5898
23.7619
25.5846
26.5452
26.354
25.0611
23.0466
20.9268
19.3213
18.6361
18.9571
20.0113
21.3257
22.3297
22.5926
21.9544
20.605
18.9305
17.413
16.4037
16.0415
16.2583
16.8306
17.5211
18.1586
18.6776
19.1502
19.6958
20.4081
21.28
22.1523
22.8511
23.169
23.0094
22.4166
21.548
20.6898
20.1538
20.1642
20.7737
21.8043
22.9664
23.8962
24.322
24.1288
23.4258
22.53
21.8865
21.9001
22.7724
24.4957
26.8093
29.3204
31.6743
33.6029
35.055
36.1889
37.3035
38.724
40.6111
42.9243
45.4573
47.8809
49.8269
51.0175
51.326
50.7884
49.5702
47.8884
45.9296
43.8917
42.0075
40.5475
39.807
39.9371
40.7677
41.6703
41.5809
39.2492
33.8484
25.5893
16.2917
9.29187
8.83284
18.7936
41.0574
74.3357
113.778
151.662
179.216
189.003
177.273
145.271
99.0784
48.1154
2.56536
-29.3526
-43.3819
-40.0646
-24.0069
-2.0783
18.8463
33.7728
40.6811
40.4404
35.8528
30.296
26.5042
25.7908
27.9396
31.6564
35.3087
37.6309
38.0984
36.9883
35.1857
33.7286
33.5063
34.9199
37.8025
41.5494
45.3384
48.4261
50.371
51.0965
50.9447
50.5212
50.5211
51.4501
53.4901
56.5139
60.141
63.8365
67.1822
69.9413
72.0598
73.6307
74.8088
75.6986
76.2237
76.1269
75.0618
72.8005
69.2959
64.7273
59.4759
54.0386
48.9056
44.3774
40.5271
37.206
34.1859
31.3
28.4862
25.8468
23.5784
21.8649
20.8295
20.4592
20.6221
21.0995
21.6637
22.1621
22.4822
22.5184
22.1992
21.4834
20.414
19.1689
18.0947
17.6333
18.2108
20.1124
23.3679
27.6206
32.207
36.3095
39.217
40.4736
39.9655
37.9027
34.8073
31.2651
27.8191
24.8756
22.643
21.1696
20.3555
20.036
19.9702
19.8546
19.3979
18.4089
16.9119
15.1322
13.4961
12.5827
12.9316
14.8741
18.3195
22.6929
27.0466
30.3217
31.5365
30.1086
26.019
19.8986
12.8635
6.28749
1.41374
-0.989546
-0.778456
1.57551
5.15247
8.86763
11.8308
13.6404
14.4918
15.0243
16.0947
18.4005
22.2096
27.2818
32.9691
38.3757
42.7177
45.5648
47.0017
47.5438
47.9399
48.8237
50.6035
53.294
56.546
59.811
62.5665
64.5197
65.715
66.4467
67.1683
68.249
69.8127
71.702
73.4736
74.5383
74.4193
72.9672
70.425
67.3188
64.1909
61.2501
58.1582
54.1209
48.2608
40.2363
30.8536
22.4399
18.6126
23.3448
39.5112
67.4964
104.314
143.745
177.579
197.676
198.274
177.793
139.533
90.8499
41.1729
-0.516035
-27.9779
-39.0651
-35.746
-23.068
-7.26323
6.18995
13.9212
15.1244
11.2743
5.08805
-0.545304
-3.45361
-2.67148
1.54537
8.08382
15.4473
22.2473
27.468
30.6216
31.7393
31.1953
29.6406
27.7181
25.8884
24.407
23.3413
22.656
22.3457
22.5566
23.5413
25.5892
28.911
33.5106
39.0909
45.0762
50.7665
55.6111
59.3667
62.059
63.9711
65.4496
66.7616
67.9861
68.9675
69.3701
68.8912
67.4042
65.0399
62.087
58.905
55.7905
52.8767
50.1089
47.3014
44.2338
40.812
37.1579
33.5044
30.2139
27.5769
25.7434
24.713
24.3356
24.3731
24.5883
24.7898
24.8525
24.6632
24.1051
23.0374
21.3332
19.0278
16.3524
13.6878
11.5205
10.315
10.2964
11.3831
13.1882
15.0344
16.2421
16.334
15.2338
13.3058
11.1696
9.51928
8.89418
9.52609
11.1939
13.3674
15.3295
16.4895
16.5607
15.6113
13.9854
12.1958
10.7591
10.055
10.1879
11.0155
12.2314
13.5084
14.5989
15.397
15.888
16.1746
16.3659
16.4961
16.5483
16.4077
15.9464
15.1047
13.9324
12.57
11.193
10.0003
9.17082
8.83061
9.07051
9.85743
11.1289
12.8015
14.7465
16.8089
18.8144
20.6477
22.2883
23.8365
25.5587
27.7153
30.5304
34.0981
38.3409
43.0086
47.6678
51.9055
55.3923
58.0377
59.9674
61.465
62.8431
64.4099
66.2992
68.4411
70.5303
72.0807
72.6766
72.1085
70.5079
68.4062
66.6128
65.9231
66.7329
68.7158
70.685
70.9144
67.7607
60.5407
50.3098
40.0545
34.2527
37.6617
53.6291
82.5444
120.97
161.99
196.705
216.611
216.065
193.953
154.194
104.695
55.1299
14.3087
-12.0451
-22.515
-19.6898
-8.88227
3.92434
13.8854
18.4642
17.7389
13.7437
9.30372
6.79605
7.47107
11.1549
16.6092
22.1968
26.4376
28.5291
28.5009
27.0428
25.1791
23.8097
23.4305
24.0792
25.3368
26.638
27.4717
27.6797
27.5035
27.5242
28.4428
30.7908
34.6542
39.581
44.7219
49.066
51.7701
52.4524
51.3508
49.2226
47.0761
45.8267
45.9853
47.5253
49.9129
52.3661
54.079
54.4915
53.3926
50.9362
47.4791
43.4174
39.0328
34.5234
29.9672
25.4756
21.2522
17.5039
14.4785
12.3564
11.1844
10.8248
11.0434
11.6052
12.3671
13.3182
14.4617
15.7974
17.2066
18.4569
19.2351
19.2494
18.3878
16.7721
14.756
12.8729
11.5784
11.1625
11.6575
12.8722
14.445
15.9858
17.1845
17.9025
18.239
18.4198
18.7767
19.6049
21.1238
23.3958
26.3021
29.4956
32.4452
34.632
35.6475
35.3389
33.8016
31.3985
28.6387
26.0693
24.08
22.8019
22.1247
21.8131
21.562
21.1454
20.4424
19.4486
18.2351
16.9056
15.5952
14.4518
13.6083
13.245
13.5833
14.7672
16.7672
19.3346
22.0933
24.5847
26.3978
27.2877
27.2506
26.501
25.4123
24.3998
23.7565
23.6488
24.1128
25.1332
26.6629
28.6257
30.8939
33.3161
35.7047
37.8488
39.5258
40.5432
40.7953
-1e-006
-1.1e-005
-4.1e-005
-9.4e-005
-0.000174
-0.00028
-0.00041
-0.000551
-0.000684
-0.000792
0.000915
0.017261
0.044626
0.063932
0.061192
0.026189
-0.021488
-0.067483
-0.096594
-0.075007
0.015887
0.157952
0.291468
0.335838
0.236659
-0.009238
-0.350541
-0.652234
-0.762014
-0.576185
-0.017438
0.885616
2.04103
3.35493
4.79291
6.41103
8.3341
10.6781
13.4683
16.5685
19.6222
22.1965
23.8888
24.5516
24.3288
23.6906
23.2804
23.6592
25.061
27.2713
29.7088
31.6311
32.4586
32.0857
30.961
29.9832
30.2009
32.3634
36.6528
42.5351
48.9087
54.5159
58.3627
60.0353
59.8213
58.5996
57.5004
57.4562
58.8625
61.5222
64.7493
67.6957
69.6345
70.1921
69.4523
67.8369
65.8188
63.7138
61.485
58.7897
55.2046
50.372
44.235
37.1481
29.801
23.0233
17.5777
13.9594
12.2879
12.3661
13.7477
15.9752
18.6263
21.426
24.1904
26.7691
29.0261
30.8113
31.9869
32.456
32.2914
31.7536
31.1617
30.8408
30.9812
31.5796
32.4312
33.1679
33.4562
33.0794
32.041
30.6186
29.2317
28.2742
27.9758
28.3286
29.0746
29.7432
29.7773
28.752
26.5264
23.3608
19.8405
16.7409
14.8322
14.7
16.521
19.9937
24.4223
28.9291
32.6947
35.1837
36.2082
35.9494
34.7939
33.1545
31.3321
29.4884
27.5944
25.5602
23.3507
21.0609
18.8828
17.0227
15.6638
14.8657
14.5759
14.6543
14.9752
15.4369
16.0069
16.7829
17.8446
19.213
20.8532
22.6898
24.6571
26.7111
28.8512
31.098
33.4574
35.8855
38.2284
40.2041
41.5119
41.9158
41.3241
39.7646
37.3215
34.1626
30.4959
26.5718
22.7025
19.373
17.1543
16.5865
17.9064
20.7098
23.8561
25.6158
24.1648
18.5038
9.16111
-1.33068
-8.66208
-7.81033
5.29468
32.0169
69.8392
112.276
150.216
174.288
177.561
157.781
118.277
67.2104
15.3326
-27.0233
-52.6687
-59.2728
-49.4343
-29.2815
-6.27343
13.0816
24.9257
28.5476
25.856
20.0894
14.4315
11.0216
10.5804
12.617
15.9882
19.5526
22.5423
24.7381
26.3431
27.7304
29.1477
30.695
32.3163
33.8478
35.1128
36.0409
36.6693
37.1286
37.6569
38.5244
39.9733
42.1677
45.0662
48.5226
52.1979
55.6222
58.3946
60.3101
61.4556
62.1424
62.8459
63.9962
65.8107
68.2463
70.8722
73.0565
74.1251
73.559
71.1919
67.2345
62.2335
56.8279
51.6263
47.0387
43.1604
39.7465
36.4216
32.8695
29.0104
25.0493
21.4874
18.929
17.8667
18.5345
20.7325
23.9275
27.3555
30.2822
32.2028
32.9544
32.656
31.6656
30.4533
29.4305
28.9122
29.0322
29.7866
31.0845
32.7765
34.6328
36.359
37.6469
38.2164
37.9524
36.9468
35.4336
33.7594
32.3209
31.4354
31.199
31.5048
32.1168
32.7778
33.3035
33.6226
33.7488
33.7235
33.5351
33.1268
32.4277
31.4274
30.1902
28.9353
27.9568
27.5264
27.7005
28.3058
28.9773
29.3044
28.9012
27.5969
25.5052
22.938
20.3831
18.2609
16.7933
15.9766
15.6189
15.4787
15.3458
15.1212
14.8914
14.871
15.3228
16.427
18.1517
20.2727
22.4646
24.4444
26.0424
27.2549
28.2461
29.2838
30.5261
31.9737
33.4096
34.4536
34.7974
34.3431
33.2619
31.9929
31.0823
30.9861
31.8211
33.3337
34.9416
35.9092
35.6102
33.7692
30.4954
26.2363
21.5972
17.2395
13.7727
11.6363
10.9589
11.4962
12.6176
13.3696
12.5898
9.34024
3.52875
-3.59077
-9.17249
-9.24744
0.206188
21.7761
55.2487
96.8244
139.419
174.12
192.573
189.42
164.089
121.197
69.429
19.2127
-20.0966
-42.5263
-46.823
-36.1656
-16.7143
4.59101
22.0416
32.4492
35.4973
33.0264
27.9153
22.8533
19.5648
18.5087
19.1664
20.5835
21.9208
22.7795
23.2282
23.6481
24.4368
25.8906
28.0016
30.4927
32.9299
34.8765
36.1485
36.778
36.9993
37.1951
37.7865
39.123
41.382
44.5159
48.2797
52.3012
56.1868
59.5609
62.1583
63.8206
64.5528
64.5301
64.0887
63.6108
63.4692
63.8744
64.759
65.7817
66.3545
65.8026
63.62
59.7754
54.7101
49.2672
44.4319
41.0398
39.4596
39.4244
40.1505
40.552
39.6895
37.0862
32.9522
28.0655
23.5233
20.3831
19.2685
20.1825
22.4682
25.0383
26.7839
27.006
25.6044
23.1308
20.5645
18.9825
19.2195
21.528
25.4855
30.1803
34.505
37.5041
38.6567
37.9856
36.0216
33.5599
31.4686
30.413
30.6597
32.0983
34.2963
36.7149
38.8554
40.3643
41.0764
41.0168
40.3124
39.1533
37.7103
36.0697
34.263
32.3704
30.4916
28.754
27.2845
26.2246
25.6487
25.4964
25.56
25.4858
24.8644
23.3804
20.9521
17.7968
14.4492
11.6906
10.32
10.9098
13.6278
18.0885
23.5052
28.9093
33.4003
36.4229
37.8874
38.1983
38.0823
38.3244
39.5237
41.8975
45.2546
49.1027
52.8048
55.7522
57.5566
58.0879
57.5443
56.3396
54.8927
53.5303
52.4557
51.8041
51.7078
52.3121
53.7168
55.9053
58.5119
60.6457
60.9977
58.1544
51.32
41.066
29.7208
21.2998
20.5427
31.4291
55.5277
90.7328
131.066
167.85
191.858
196.083
177.987
140.515
91.3822
41.0223
-0.424264
-25.9256
-33.264
-25.1749
-7.9253
11.0113
25.365
31.7044
29.8707
22.3192
12.7419
4.53331
-0.232598
-1.12738
0.998766
4.75329
8.82939
12.4178
15.2305
17.2482
18.587
19.2798
19.324
18.7739
17.8289
16.9076
16.4974
16.8969
18.1071
19.8276
21.6263
23.0994
24.1102
24.8117
25.6171
27.0241
29.3618
32.6701
36.6361
40.74
44.4824
47.5208
49.766
51.3632
52.5465
53.5621
54.5401
55.4647
56.1332
56.3302
55.8807
54.6957
52.7595
50.1062
46.8054
42.9744
38.8057
34.5317
30.4249
26.7011
23.5554
21.1152
19.4059
18.3745
17.9353
18.0715
18.7177
19.7573
20.9566
21.9061
22.1956
21.4739
19.5976
16.7357
13.3491
10.1397
7.84052
6.92694
7.55524
9.51951
12.3582
15.4834
18.3386
20.5625
21.9835
22.6585
22.804
22.6845
22.5852
22.7533
23.3711
24.5252
26.1607
28.0548
29.8909
31.3964
32.4184
32.9645
33.224
33.4758
33.9954
34.9339
36.2072
37.4969
38.3695
38.4969
37.7628
36.3308
34.6633
33.294
32.7282
33.2257
34.7116
36.7921
38.8819
40.5002
41.4175
41.7154
41.7349
41.9244
42.6362
43.991
45.7382
47.3536
48.2279
47.9343
46.3502
43.6613
40.3081
36.8586
33.9123
31.8824
30.9043
30.8476
31.2345
31.3565
30.3226
27.2589
21.6939
13.9792
5.5534
-0.971757
-2.31142
4.56878
21.3574
47.4185
79.3921
111.579
137.245
150.446
147.861
129.95
100.987
67.9616
38.6883
19.6788
14.465
22.9048
41.5717
65.0092
87.5828
104.905
114.745
117.146
113.898
107.597
100.77
95.1773
91.5643
89.7748
89.1041
88.7075
87.8689
86.1708
83.5171
80.0883
76.1546
71.9378
67.4966
62.7203
57.5074
51.8477
45.9371
40.2007
35.1797
31.4313
29.2408
28.4677
28.5543
28.6708
27.9658
25.852
22.1944
17.2756
11.7251
6.26739
1.5969
-1.77503
-3.61636
-3.8456
-2.4913
0.331158
4.33496
8.99838
13.6253
17.3934
19.5664
19.7364
17.9647
14.7824
11.1807
8.27772
6.92189
7.47859
9.7544
13.046
16.4409
19.0567
20.3214
20.063
18.5574
16.3802
14.1723
12.4429
11.4915
11.3582
11.8634
12.7277
13.6781
14.5072
15.1762
15.8568
16.815
18.2815
20.3733
23.0564
26.0923
29.1161
31.7571
33.7609
35.065
35.7988
36.2384
36.6312
37.1489
37.7948
38.5021
39.1901
39.8122
40.4443
41.2617
42.4677
44.148
46.1585
48.1708
49.7541
50.4762
50.0589
48.4301
45.709
42.1961
38.287
34.2774
30.3884
26.7831
23.6194
21.194
19.8481
19.9199
21.6343
24.9773
29.6195
34.8719
39.8005
43.4862
45.2576
44.9072
42.8439
39.9612
37.3461
35.986
36.4088
38.497
41.4307
43.9413
44.7987
43.2661
39.4423
34.266
29.218
25.7035
24.4368
25.0668
26.2003
25.9931
23.0977
17.6009
11.4896
8.36694
12.3339
26.4556
51.1986
83.6262
117.611
145.282
159.239
154.819
131.677
94.0688
49.7235
7.72485
-23.9484
-40.5379
-41.4551
-29.9835
-11.9125
6.52032
20.343
27.0265
26.7297
21.7031
15.1956
10.2358
8.73145
11.1493
16.5746
23.2513
29.2401
32.9807
33.6766
31.4588
27.2003
22.2315
17.9067
15.1793
14.3896
15.2722
17.1253
19.089
20.5138
21.1672
21.2308
21.2267
21.731
23.0717
25.2288
27.8767
30.535
32.7716
34.3671
35.435
36.377
37.7429
40.0366
43.514
48.1258
53.528
59.1861
64.4631
68.736
71.5478
72.6776
72.1101
70.0013
66.6296
62.315
57.4256
52.2622
47.1038
42.1793
37.7033
33.8787
30.884
28.7829
27.5504
26.9787
26.7497
26.4643
25.7833
24.5253
22.7511
20.7706
18.971
17.7281
17.2191
17.3216
17.6808
17.8588
17.4602
16.348
14.7395
13.0738
11.8874
11.6116
12.3805
13.9523
15.8758
17.624
18.8104
19.3112
19.2867
19.1354
19.2787
20.006
21.3182
22.973
24.6259
25.988
26.9316
27.4936
27.892
28.3703
29.0829
29.9463
30.6875
30.9418
30.3977
28.8892
26.4779
23.4093
20.0684
16.8389
14.0174
11.7374
10.0522
8.90609
8.24593
8.03539
8.25515
8.85672
9.73622
10.6906
11.4684
11.8571
11.7809
11.3604
10.9267
10.9275
11.6641
13.1307
14.9007
16.1531
15.8462
12.964
6.8744
-2.42974
-14.2081
-27.0403
-39.0625
-48.4119
-53.6883
-54.3238
-50.8744
-44.9736
-38.9963
-35.294
-35.2226
-38.3588
-42.1415
-2e-006
-2e-005
-7.6e-005
-0.000207
-0.000454
-0.000865
-0.001455
-0.002202
-0.003036
-0.003842
-0.001442
0.026752
0.084669
0.174927
0.270027
0.337563
0.296424
0.104662
-0.20519
-0.536933
-0.725371
-0.604044
-0.085967
0.767185
1.68256
2.21552
1.9134
0.553942
-1.67584
-4.13302
-5.74136
-5.2555
-1.58862
5.83578
16.833
30.4568
45.1538
59.1333
70.7819
79.0081
83.4563
84.5064
83.1126
80.5404
78.0595
76.6342
76.7951
78.5444
81.4519
84.7756
87.6317
89.2286
89.0484
86.9132
83.0175
77.8288
71.9203
65.8342
59.9178
54.2489
48.6966
43.0374
37.0684
30.7603
24.2272
17.7694
11.6762
6.20453
1.48557
-2.53773
-6.04984
-9.27849
-12.4066
-15.4902
-18.4257
-20.9978
-22.9463
-23.9815
-23.8537
-22.4944
-20.0086
-16.6496
-12.7632
-8.74401
-4.95487
-1.69355
0.851421
2.62494
3.63942
4.00408
3.9042
3.592
3.41195
3.73549
4.90938
7.10807
10.2725
14.0348
17.7917
20.8813
22.6969
22.9513
21.8007
19.821
17.8548
16.6863
16.8091
18.2679
20.6278
23.1289
24.9441
25.4767
24.5819
22.6176
20.2662
18.3258
17.4039
17.7864
19.3608
21.6671
24.0522
25.9279
26.9142
26.9507
26.2734
25.3008
24.5144
24.3021
24.8916
26.2551
28.1501
30.2162
32.1132
33.5608
34.4704
34.8836
34.9457
34.922
35.0601
35.6031
36.6862
38.3344
40.5098
43.0672
45.7804
48.3107
50.3102
51.4678
51.5437
50.4762
48.3249
45.279
41.6188
37.7075
34.0265
31.0099
29.0391
28.3279
28.7293
29.6671
30.083
28.777
24.9645
18.9152
12.3645
8.46182
11.0973
23.6684
47.614
81.2929
119.628
154.987
179.071
185.314
170.985
138.252
93.855
47.3537
8.50214
-15.4759
-21.6396
-11.7776
8.59759
32.2629
52.5556
65.182
68.9157
65.3603
57.8192
49.8905
44.2659
42.0981
43.0974
46.0235
49.3719
51.8636
52.7928
52.1056
50.196
47.6592
45.0997
42.9541
41.5175
40.801
40.6471
40.6805
40.402
39.3666
37.3278
34.3911
30.9814
27.7972
25.6212
25.1083
26.5361
29.7051
33.9875
38.5142
42.4021
45.0114
46.0224
45.4173
43.4421
40.4456
36.7584
32.5776
28.0045
23.1792
18.3604
13.9214
10.3115
7.92565
6.95668
7.33845
8.73375
10.629
12.4838
13.9326
14.8732
15.4594
15.9573
16.6094
17.5192
18.6057
19.5855
20.1117
19.8777
18.8062
17.0908
15.1459
13.5102
12.6493
12.919
14.3487
16.6849
19.4551
22.0523
23.9372
24.7528
24.4085
23.0578
21.0284
18.7231
16.5004
14.5827
13.0265
11.7037
10.4244
9.03262
7.5045
5.9669
4.66095
3.86977
3.81968
4.58713
6.00066
7.71104
9.27145
10.2919
10.5725
10.1382
9.16917
7.97324
6.87663
6.10501
5.69876
5.52434
5.40644
5.1433
4.67688
3.98596
3.13656
2.26831
1.53207
1.01061
0.746606
0.757658
1.08348
1.78692
2.93833
4.6076
6.79225
9.4342
12.3905
15.4903
18.5728
21.4637
24.0012
26.0464
27.402
27.8553
27.1435
25.0632
21.5967
16.9801
11.8332
7.02465
3.60089
2.42573
3.82381
7.25997
11.3107
13.9304
13.136
7.88078
-1.18695
-11.3781
-18.3976
-17.4738
-5.00266
19.8325
54.066
91.1834
122.542
139.666
136.78
112.647
71.2387
20.7423
-28.6029
-67.3091
-89.0826
-92.1754
-79.3504
-56.5745
-30.972
-8.79871
6.07282
12.6194
12.2092
7.6743
2.14389
-1.89134
-3.01906
-0.910702
3.91901
10.4914
17.7067
24.6358
30.6324
35.3962
38.9523
41.5799
43.707
45.7292
47.9284
50.3656
52.9824
55.704
58.5749
61.7134
65.295
69.3879
73.8217
78.107
81.5279
83.3331
83.003
80.5086
76.3751
71.5757
67.2487
64.3631
63.4218
64.3475
66.4894
68.7735
70.0715
69.5297
66.7442
61.8554
55.5587
48.7898
42.5331
37.5218
34.039
31.8384
30.2668
28.509
25.8382
21.9124
16.9295
11.5563
6.78275
3.59594
2.67074
4.12895
7.51561
11.9258
16.2179
19.299
20.4368
19.339
16.1835
11.5199
6.08868
0.652502
-4.14589
-7.86656
-10.2341
-11.2076
-10.9427
-9.74392
-8.00838
-6.20091
-4.79022
-4.14804
-4.50444
-5.80034
-7.68835
-9.57311
-10.7524
-10.621
-8.75561
-5.07301
0.134453
6.25311
12.5565
18.4254
23.4893
27.686
31.2534
34.4948
37.6717
40.8813
43.9439
46.5152
48.2589
49.0671
49.1307
48.9228
49.0571
50.0467
52.1305
55.1424
58.5625
61.6929
63.9432
65.088
65.3591
65.3352
65.8347
67.562
70.9224
75.866
81.9166
88.3428
94.3848
99.4732
103.337
105.939
107.283
107.294
105.754
102.328
96.7563
89.1354
80.0427
70.5274
61.7771
54.6532
49.1635
44.2308
38.1335
29.1985
16.8716
2.62174
-9.83426
-15.226
-8.34153
13.9825
51.0681
97.6851
144.843
182.011
200.011
193.84
164.358
118.275
66.2441
12.9442
10.7694
9.6763
9.62816
10.39
11.6164
12.9898
14.2682
15.3318
16.1462
16.7723
17.3604
18.1764
19.5436
21.8295
25.2479
29.6572
34.4444
38.5411
40.9042
41.0821
39.7675
39.109
42.4259
53.384
74.6498
106.553
146.177
187.514
222.598
243.508
244.577
224.137
185.204
134.829
82.2533
36.4784
4.01873
-12.56
-14.7128
-6.90852
5.11873
16.1518
22.8354
24.2146
21.3716
16.5229
11.9188
9.06423
8.41212
9.51387
11.4602
13.3543
14.6174
15.1723
15.2943
15.3649
15.6089
16.0476
16.4659
16.5593
16.0749
14.9104
13.1336
11.0085
8.90627
7.22536
6.28478
6.26342
7.21523
9.05659
11.5349
14.2458
16.6836
18.3658
18.9334
18.2769
16.5039
14.0472
11.5
9.51389
8.53659
8.73832
9.94865
11.7543
13.664
15.3123
16.5438
17.4107
18.1299
18.9127
19.8436
20.8119
21.5091
21.5759
20.7604
19.0372
16.63
13.9395
11.457
9.66354
8.89787
9.30371
10.8207
13.2484
16.2997
19.6364
22.871
25.6187
27.5002
28.2163
27.6071
25.6803
22.6167
18.8253
14.8739
11.3583
8.73445
7.26146
6.98114
7.7666
9.42503
11.7268
14.5778
17.9818
21.9849
26.5925
31.5929
36.5858
40.9958
44.2186
45.7473
45.357
43.1972
39.7644
35.8302
32.2479
29.7187
28.6132
28.8868
30.1072
31.582
32.5574
32.4161
30.8206
27.8735
24.0607
20.1169
16.824
14.8173
14.4202
15.5786
17.8238
20.4331
22.6249
23.7634
23.5601
22.1212
19.9521
17.7992
16.4547
16.5283
18.2273
21.2743
24.9952
28.5364
31.0676
32.0349
31.303
29.1724
26.2613
23.321
20.9015
19.2961
18.4532
18.0908
17.8567
17.485
16.9345
16.4088
16.2541
16.8053
18.2083
20.3053
22.6659
24.7389
25.9913
26.1401
25.2186
23.6042
21.8958
20.6674
20.246
20.5672
21.1629
21.3704
20.6258
18.7505
16.1045
13.5279
11.9748
12.0409
13.5232
15.2335
15.3531
12.1647
5.02576
-4.85948
-14.2724
-18.6261
-13.3669
4.20965
33.4708
69.8982
105.794
132.244
141.661
130.157
98.8526
53.7521
4.0911
-40.2428
-71.4168
-85.5419
-83.2424
-68.8192
-48.5378
-28.5623
-13.3289
-4.74556
-2.37651
-4.27798
-8.08043
-11.9173
-14.777
-16.4226
-17.1047
-17.1057
-16.5324
-15.2463
-13.0958
-10.0558
-6.3676
-2.52161
0.948167
3.68429
5.67573
7.25889
9.02085
11.5967
-1e-006
-1.5e-005
-5.7e-005
-0.000148
-0.000297
-0.000511
-0.000776
-0.001054
-0.001281
-0.001389
0.000842
0.022126
0.067502
0.121716
0.142871
0.112027
0.012435
-0.151033
-0.324534
-0.416443
-0.318302
0.011228
0.524097
1.03225
1.2643
0.983624
0.089379
-1.25285
-2.60231
-3.32796
-2.78435
-0.54245
3.38581
8.48564
13.8235
18.3161
21.081
21.7225
20.4748
18.1423
15.8478
14.6632
15.2294
17.5555
21.0803
24.8818
28.0627
30.0879
30.9334
31.0902
31.2985
32.2416
34.2373
37.0883
40.1479
42.5958
43.7006
43.0834
40.7876
37.2792
33.2786
29.5157
26.5477
24.6404
23.7714
23.7641
24.346
25.2289
26.1496
26.8964
27.3263
27.3315
26.9098
26.122
25.1519
24.2988
23.8086
