-0.154129
-0.979807
-1.72368
-2.06973
-1.73215
-0.552667
1.42602
3.93942
6.54744
8.74059
10.0778
10.3143
9.47624
7.85696
5.9299
4.20581
3.07879
2.71261
3.00579
3.64802
4.24856
4.49166
4.26348
3.70339
3.15835
3.05324
3.72063
5.25048
7.4168
9.71509
11.5087
12.2455
11.6812
10.0376
8.04301
6.83112
7.7182
11.9116
20.2232
32.8617
49.3537
68.6124
89.134
109.27
127.515
142.736
154.326
162.227
166.868
169.021
169.629
169.632
169.823
170.749
172.665
175.539
179.104
182.941
186.586
189.632
191.805
192.98
193.143
192.287
190.286
186.792
181.215
172.824
160.975
145.428
126.652
106.025
85.8062
68.8386
58.001
55.5119
62.2625
77.3712
98.1172
120.324
139.144
150.074
149.962
137.749
114.745
84.3559
51.3369
20.7416
-3.15449
-17.7013
-22.2939
-18.2927
-8.50216
3.62252
14.8188
22.6962
26.1073
25.1607
20.9323
14.9977
8.94066
3.97029
0.726632
-0.713382
-0.678411
0.323783
1.81531
3.47728
5.17591
6.90245
8.67055
10.4231
11.9892
13.1068
13.502
12.9919
11.5723
9.45649
7.0487
4.85711
3.37115
2.93794
3.67309
5.4299
7.83423
10.3739
12.5172
13.8301
14.0634
13.1916
11.4025
9.04322
6.5446
4.34278
2.81464
2.23575
2.76012
4.41572
7.10755
10.6234
14.6429
18.7552
22.4925
25.3837
27.0258
27.1601
25.7361
22.9425
19.1906
15.0482
11.1333
7.9937
6.00151
5.28943
5.7462
7.06974
8.86092
10.7294
12.3806
13.6611
14.5533
15.13
15.4877
15.6873
15.7226
15.526
15.0051
14.094
12.7958
11.2004
9.47089
7.80637
6.39822
5.39972
4.92168
5.05449
5.90323
7.61393
10.3698
14.3469
19.6361
26.1546
33.5824
41.3556
48.7358
54.9495
59.3669
61.6719
61.9686
60.7861
58.9671
57.4625
57.0815
58.2673
60.9614
64.6023
68.2636
70.9
71.635
70.0088
66.1154
60.5827
54.3985
48.6249
44.0853
41.1168
39.4678
38.3847
36.8726
34.0633
29.5816
23.7947
17.8488
13.4579
12.4776
16.3675
25.6901
39.7955
56.8017
73.9058
87.9666
96.2209
96.9509
89.926
76.4965
59.3096
41.7189
27.0366
17.8196
15.3626
19.5133
28.831
41.0257
53.5439
64.1456
71.3353
74.5638
74.1858
71.2209
67.0078
62.8503
59.739
58.1961
58.2535
59.5396
61.4347
63.2476
64.3759
64.4234
63.2619
61.0361
58.1158
55.0092
52.2518
50.2923
49.3961
49.5875
50.6408
52.125
53.4903
54.178
53.7284
51.8645
48.537
43.9258
38.4037
32.4753
26.7034
21.6348
17.7317
15.3118
14.5021
15.2105
17.1239
19.7431
22.4563
24.6483
25.8273
25.7434
24.4658
22.3951
20.196
18.661
18.533
20.3287
24.2092
29.93
36.8844
44.2293
51.0578
56.5758
60.2386
61.819
61.3994
59.3031
55.9928
51.9707
47.7056
43.5972
39.9735
37.1038
35.207
34.4425
34.8821
36.476
39.0304
42.2169
45.6234
48.8374
51.5442
53.6084
55.111
56.3274
57.6455
59.4464
61.9807
65.2756
69.1011
73.006
76.4126
78.7458
79.5595
78.6289
75.9873
71.9007
66.7928
61.1434
55.3872
49.8374
44.6501
39.8329
35.2895
30.8874
26.527
22.196
17.9938
14.1209
10.8326
8.36918
6.87959
6.359
6.62152
7.32088
8.02094
8.30277
7.88203
6.70248
4.97333
3.13117
1.7281
1.27224
2.06595
4.0942
7.00567
10.2033
13.0253
14.9642
15.8503
15.9291
15.7901
16.1534
17.5704
20.1398
23.3471
26.1126
27.072
25.0341
19.489
10.9989
1.31661
-6.86385
-10.5091
-7.07603
4.64935
23.9521
48.0363
72.4196
91.8234
101.362
97.7348
80.1057
50.4252
13.0935
-25.9623
-60.5662
-85.6044
-98.0416
-97.4063
-85.6533
-66.4835
-44.3343
-23.3244
-6.41897
5.00127
11.1177
13.2721
13.3553
13.1847
14.0418
16.4652
20.3034
24.9546
29.6778
33.861
37.1691
39.5503
41.1325
42.073
42.4335
42.1283
40.9604
38.7229
35.3211
30.8638
25.6878
20.3058
15.2936
11.1539
8.2011
6.5001
5.8762
5.98945
6.44788
6.92527
7.24972
7.44078
7.68841
8.28355
9.52181
11.6068
14.5778
18.2783
22.3718
26.4007
29.8737
32.3646
33.6001
33.5195
32.2924
30.2899
28.0119
25.985
24.6497
24.2628
24.8357
26.1259
27.687
28.9662
29.4322
28.7015
26.6363
23.3891
19.3836
15.2369
11.6392
9.21966
8.4268
9.44699
12.176
16.2441
21.0862
26.0393
30.449
33.7662
35.6217
35.8706
34.602
32.1155
28.8676
25.3944
22.2215
19.7753
18.3099
17.867
18.2779
19.2091
20.2449
20.9855
21.1395
20.5848
19.3836
17.7468
15.9611
14.2988
12.9401
11.9303
11.1837
10.5338
9.80978
8.91607
7.88684
6.89747
6.22775
6.18668
7.02068
8.83143
11.5274
14.8229
18.2853
21.4195
23.7673
24.9992
24.976
23.7668
21.621
18.9014
15.9964
13.233
10.8147
8.80135
7.138
5.7244
4.50348
3.53521
3.02257
3.26621
4.5474
6.96694
10.2943
13.8931
16.7823
17.8553
16.2342
11.6743
4.89772
-2.27568
-7.09723
-6.38196
2.74722
22.027
51.351
88.4141
128.852
166.902
196.484
212.45
211.721
194.013
161.973
120.664
76.5308
36.0906
4.66286
-14.5714
-20.9815
-16.3177
-4.05118
11.571
26.5063
37.7006
43.5257
43.8242
39.6231
32.6441
24.7695
17.6
12.1895
8.97891
7.89377
8.53684
10.3991
13.0272
16.1151
19.5174
23.2069
27.2087
31.5436
36.1998
41.1375
46.317
51.7302
57.4172
63.4539
69.9088
76.7824
83.9488
91.1243
97.8824
103.72
108.163
110.889
111.818
111.164
109.391
107.113
104.931
103.275
102.273
101.714
101.1
99.7811
97.1493
92.8154
86.737
79.2492
70.9934
62.7628
55.3105
49.1731
44.5598
41.333
39.0836
37.2729
35.3988
33.1369
30.4195
27.4333
24.5428
22.1655
20.6384
20.1131
20.5077
21.5256
22.7313
23.6586
23.9213
23.2962
21.7601
19.4764
16.7394
13.8975
11.2752
9.11465
7.54665
6.59223
6.18658
6.21288
6.53383
7.01277
7.52286
7.94859
8.18655
8.15204
7.79378
7.11336
6.18194
5.14453
4.20496
3.59021
3.50017
4.05522
5.25647
6.97189
8.95485
10.8925
12.4729
13.453
13.7116
13.2711
12.2865
11.0042
9.7036
8.63795
7.98885
7.84312
8.19388
8.96048
10.018
11.227
12.4564
13.5972
14.5688
15.3192
15.8226
16.0734
16.0774
15.8388
15.3458
14.5631
13.437
11.9219
10.0258
7.86423
5.69977
3.94204
3.08681
3.59154
5.70941
9.3296
13.8861
18.3927
21.6334
22.4898
20.3346
15.3779
8.84126
2.863
0.104531
3.11558
13.6031
31.8016
56.1427
83.36
109.055
128.62
138.299
136.124
122.456
99.9815
73.1524
47.1831
26.8808
15.5955
14.5596
22.7678
37.403
54.6649
70.7581
82.7746
89.2483
90.2738
87.2078
82.0856
76.9504
73.2933
71.7447
72.0702
73.4241
74.744
75.1456
74.1909
71.9622
68.944
65.7746
62.9673
60.7002
58.7427
56.5369
53.401
48.7822
42.4741
34.7302
26.2339
17.9375
10.8148
5.60316
2.60646
1.61666
1.97222
2.73583
2.93989
1.83214
-0.943275
-5.27383
-10.628
-16.2055
-21.1428
-24.7165
-26.4934
-26.3951
-24.6707
-21.7963
-18.3373
-14.8147
-11.608
-8.91508
-6.76651
-5.07994
-3.72947
-2.60587
-1.65108
-0.861432
-0.265674
0.108672
0.265126
0.251962
0.154805
0.071251
0.0773522
0.198836
0.398681
0.587441
0.655124
0.515719
0.149859
-0.370249
-0.885927
-1.19114
-1.09864
-0.515378
0.497035
1.70142
2.71969
3.12442
2.57018
0.931736
-1.5921
-4.44683
-6.78476
-7.61901
-6.03944
-1.43962
6.30423
16.7533
28.9521
41.5954
53.2767
62.7599
69.2042
72.2923
72.2317
69.6414
65.36
60.2339
54.9416
49.8978
45.2478
40.9427
36.8552
32.8945
29.0822
25.5679
22.5874
20.3845
19.1264
18.8429
19.4066
20.5562
21.9508
23.2336
24.0857
24.2571
23.5754
21.9418
19.3318
15.8093
11.56
6.93006
2.45186
-1.17095
-3.13572
-2.67415
0.771742
7.36971
16.7642
28.0396
39.8125
50.4533
58.4038
62.5191
62.3498
58.2786
51.4606
43.5615
36.3481
31.2356
28.9159
29.1845
31.031
32.9855
33.6329
32.1446
28.6584
24.3695
21.2731
21.6037
27.1193
38.4389
54.6437
73.2932
90.8874
103.679
108.624
104.216
90.9538
71.3107
49.1941
29.0346
14.7482
8.84523
11.9179
22.6245
38.1504
54.9974
69.8717
80.4333
85.7221
86.1855
83.3425
79.2194
75.735
74.2075
75.1001
78.0379
82.0526
85.9506
88.6844
89.6219
88.6545
86.1405
82.7259
79.1139
75.8583
73.2354
71.2199
69.5552
67.8817
65.8794
63.3776
60.4061
57.1801
54.0308
51.3107
49.3016
48.1529
47.8605
48.2866
49.2044
50.3513
51.4715
52.3381
52.7578
52.5645
51.6166
49.8075
47.0902
43.51
39.2293
34.5299
29.7816
25.3798
21.6669
18.8583
16.9991
15.9676
15.5267
15.4096
15.4124
15.4644
15.6497
16.1749
17.2901
19.1895
21.9247
25.3566
29.1626
32.8955
36.0739
38.2776
39.2208
38.786
37.0169
34.0828
30.2317
25.7526
20.9551
16.1665
11.7329
8.01176
5.34137
3.98839
4.08319
5.5638
8.15106
11.3715
14.6308
17.3259
18.9685
19.2894
18.295
16.2606
13.6603
11.0544
8.96055
7.74268
7.54355
8.27367
9.65472
11.3016
12.8192
13.8891
14.3271
14.1029
13.3218
12.1819
10.9178
9.74883
8.84061
8.28522
8.09941
8.23626
8.60426
9.08926
9.57652
9.97197
10.2227
10.3357
10.3907
10.5438
11.015
12.0559
13.9006
16.7053
20.4919
25.1101
30.2345
35.4035
40.0971
43.8386
46.2935
47.3412
47.0929
45.8519
44.0225
41.9964
40.0513
38.2961
36.6789
35.0554
33.288
31.3337
29.2779
27.294
25.5354
24.0028
22.451
20.3935
17.2415
12.5586
6.36221
-0.634493
-6.95524
-10.5429
-9.1965
-1.18029
14.1538
35.9218
61.608
87.3977
108.905
122.142
124.484
115.371
96.536
71.6878
45.694
23.4871
8.96272
4.15514
8.89327
21.0033
36.9781
52.9117
65.4432
72.4676
73.4588
69.3641
62.1513
54.1676
47.5027
43.5198
42.648
44.4481
47.8867
51.7106
54.8041
56.4396
56.3765
54.8124
52.2317
49.2131
46.2564
43.6727
41.5535
39.8116
38.2671
36.7437
35.1469
33.5005
31.9377
30.6536
29.8366
29.6011
29.9413
30.7174
31.6788
32.5144
32.9168
32.6422
31.5525
29.6315
26.9749
23.7627
20.2226
16.5963
13.1141
9.97748
7.34793
5.33714
3.99554
3.30181
3.15848
3.4009
3.82402
4.22582
4.45881
4.47531
4.35131
4.27737
4.51488
5.32653
6.89982
9.28579
12.3724
15.9018
19.5273
22.8936
25.7163
27.8361
29.2341
30.0033
30.2902
30.226
29.872
29.1974
28.0956
26.4332
24.1146
21.1386
17.6299
13.8338
10.0753
6.69659
3.98936
2.1419
1.213
1.13681
1.75321
2.85176
4.21562
5.65406
7.01792
8.19868
9.11693
9.70821
9.91386
9.68108
8.97303
7.7857
6.16609
4.22549
2.14215
0.149898
-1.48838
-2.51978
-2.74728
-2.07376
-0.533863
1.69622
4.31768
6.95748
9.23953
10.8646
11.68
11.7206
11.2073
10.4994
10.012
10.1163
11.051
12.8681
15.4297
18.4536
21.5948
24.5347
27.0492
29.0338
30.4792
31.4113
31.8219
31.6252
30.6664
28.7895
25.9463
22.307
18.3196
14.6763
12.1682
11.4518
12.7887
15.8468
19.6516
22.7439
23.543
20.8434
14.316
4.85368
-5.37891
-13.2642
-15.3939
-8.94004
7.48018
33.1894
65.286
99.0271
128.715
148.895
155.586
147.227
125.094
93.0719
56.8191
22.5468
-4.30072
-20.1336
-23.8234
-16.7089
-2.04195
15.9471
33.1032
46.2503
53.7415
55.5639
53.0327
48.2105
43.2396
39.7744
38.6432
39.7913
42.4724
45.5944
48.0986
49.2633
48.86
47.1437
44.7063
42.2557
40.3915
39.4413
39.392
39.9228
40.519
40.6281
39.8138
37.8734
34.8923
31.2316
27.4571
24.228
22.1718
21.7685
23.2645
26.629
31.5579
37.5207
43.8429
49.8049
54.7437
58.1374
59.6608
59.2049
56.8626
52.8884
47.6458
41.5563
35.06
28.5906
22.5598
17.3434
13.258
10.5254
9.22808
9.26983
10.3586
12.0296
13.7145
14.8515
15.0129
14.0187
12.0005
9.39425
6.85189
5.09165
4.72054
6.07576
9.12795
13.4739
18.4222
23.1506
26.8932
29.1098
29.5936
28.4939
26.2525
23.4769
20.7882
18.6853
17.459
17.1719
17.6993
18.809
20.2496
21.819
23.3922
24.91
26.3387
27.6259
28.6754
29.356
29.5436
29.1831
28.3418
27.23
26.1701
25.515
25.5365
26.3174
27.6873
29.2314
30.3798
30.5628
29.3878
26.7875
23.0876
18.9668
15.31
12.9897
12.6345
14.4517
18.1567
23.0342
28.1178
32.438
35.2698
36.3081
35.7214
34.0695
32.1108
30.5606
29.8736
30.1192
30.9872
31.922
32.3371
31.8403
30.3848
28.2924
26.1283
24.4655
23.6156
23.4298
23.2561
22.1009
18.9702
13.3041
5.36294
-3.57797
-11.333
-15.2345
-12.8099
-2.54056
15.512
39.4166
65.547
89.2271
105.717
111.306
104.226
85.1487
57.1118
24.8908
-6.03463
-30.6557
-45.459
-49.0557
-42.2839
-27.7985
-9.29425
9.41338
25.206
36.1937
41.8705
42.9168
40.7605
37.0554
33.2292
30.2069
28.3438
27.5379
27.4443
27.701
28.0911
28.603
29.3905
30.666
32.5774
35.1143
38.0743
41.095
43.7378
45.5946
46.3846
46.0172
44.6046
42.4274
39.8656
37.3153
35.1145
33.4947
32.566
32.3347
32.7401
33.6951
35.1142
36.9186
39.0182
41.2798
43.497
45.3794
46.5732
46.7142
45.505
42.794
38.6364
33.3138
27.3052
21.2105
15.6445
11.1246
7.97973
6.29996
5.9373
6.55462
7.70896
8.94884
9.90415
10.3509
10.24
9.68844
8.93603
8.28058
8.00334
8.30047
9.2339
10.7118
12.5039
14.2897
15.7305
16.5488
16.5964
15.8926
14.6207
13.0814
11.6141
10.5073
9.92432
9.86673
10.188
10.6545
11.0356
11.1924
11.1355
11.0291
11.1352
11.7127
12.9027
14.6385
16.6152
18.3366
19.2356
18.8374
16.9211
13.6287
9.48347
5.3039
2.02721
0.48606
1.19678
4.21783
9.11956
15.0764
21.0581
26.0684
29.3662
30.6099
29.8887
27.6416
24.4958
21.0836
17.8975
15.2276
13.192
11.8324
11.2213
11.5198
12.9421
15.626
19.4529
23.8967
27.9917
30.479
30.1363
26.2198
18.8867
9.44148
0.273944
-5.56389
-5.08493
3.76896
21.365
45.9635
73.8199
99.842
118.68
125.991
119.544
99.8646
70.2198
35.9306
3.17535
-22.4049
-36.9403
-39.0927
-30.1676
-13.5831
6.12408
24.4653
38.023
45.0806
45.7425
41.5789
34.9557
28.2788
23.3701
21.1263
21.5015
23.7571
26.8495
29.8118
32.0114
33.2318
33.5941
33.3835
32.8691
32.1888
31.3325
30.2142
28.7865
27.1387
25.5323
24.3533
24.0009
24.7501
26.6444
29.4559
32.7328
35.9166
38.4925
40.122
40.7154
40.4213
39.5409
38.3974
37.2075
35.9992
34.6046
32.7313
30.0876
26.5202
22.1176
17.2406
12.467
8.46044
5.80126
4.82698
5.53023
7.54534
10.2302
12.8225
14.6295
15.1985
14.4256
12.5711
10.1822
7.94334
6.49581
6.27548
7.40907
9.69453
12.6667
15.7276
18.3034
19.9873
20.6291
20.3536
19.5043
18.534
17.874
17.8182
18.4541
19.6551
21.1326
22.5288
23.5209
23.9059
23.6437
22.8508
21.7503
20.6004
19.624
18.9623
18.6629
18.6999
19.0135
19.548
20.2732
21.1802
22.2545
23.4412
24.6208
25.6091
26.1891
26.1681
25.4415
24.0441
22.1678
20.1383
18.3533
17.1972
16.9562
17.7519
19.5128
21.985
24.7812
27.4539
29.5796
30.8384
31.0764
30.3387
28.864
27.0354
25.2878
23.9861
23.2984
23.1036
22.9731
22.2575
20.2817
16.6169
11.3594
5.32272
0.0528556
-2.38964
0.12583
9.21053
25.3676
47.5788
73.2209
98.393
118.627
129.842
129.31
116.388
92.7964
62.3558
30.2132
1.74678
-18.5843
-28.1564
-26.6415
-15.9117
0.56113
18.6289
34.4608
45.3521
50.1631
49.3226
44.4484
37.7385
31.3236
26.7587
24.7641
25.2393
27.4929
30.5799
33.6287
36.0636
37.6838
38.6081
39.1358
39.5898
40.1963
41.0317
42.0364
43.0705
43.9811
44.6518
45.0223
45.0827
44.8562
44.3872
43.7438
43.0322
42.4108
42.0862
42.281
43.1727
44.8183
47.0894
49.646
51.9668
53.4405
53.4999
51.7665
48.1644
42.9677
36.7633
30.3321
24.4783
19.849
16.7936
15.2994
15.0217
15.3978
15.8133
15.7737
15.0356
13.6618
11.9896
10.5233
9.78377
10.1574
11.7861
14.5258
17.9821
21.6112
24.8551
27.2771
28.6596
29.0423
28.6922
28.0175
27.4477
27.3147
27.7651
28.726
29.9336
31.0146
31.5979
31.4269
30.4402
28.7998
26.8581
25.0725
23.8915
23.6405
24.4387
26.1668
28.4905
30.9337
32.9788
34.1697
34.1931
32.9238
30.4276
26.9294
22.7565
18.2756
13.8342
9.71938
6.13575
3.20359
0.971983
-0.560312
-1.42487
-1.67214
-1.37319
-0.633891
0.385859
1.46095
2.31268
2.6533
2.26254
1.07899
-0.724595
-2.71994
-4.2858
-4.76186
-3.66786
-0.928
2.98005
7.02779
9.83268
10.0333
6.76038
0.0690084
-8.81981
-17.5881
-23.2426
-22.827
-14.2602
2.92683
27.1833
55.0189
81.605
101.784
111.248
107.587
90.9323
63.9983
31.5262
-0.757495
-27.3905
-44.3246
-49.6965
-44.0526
-30.0099
-11.4769
7.33625
22.8605
32.8439
36.6321
35.0398
29.9052
23.4807
17.8348
14.4047
13.7831
15.7457
19.4712
23.8638
27.8813
30.7898
32.2949
32.5402
31.9965
31.2853
30.991
31.5093
32.9654
35.2124
37.9018
40.5989
42.9079
44.5727
45.529
45.8988
45.9354
45.9399
46.1753
46.8033
47.8566
49.2482
50.8085
52.3309
53.6113
54.4695
54.7524
54.3252
53.0639
50.8594
47.6377
43.3953
38.2353
32.3936
26.2389
20.2412
14.9099
10.7131
7.99363
6.90275
7.36537
9.0872
11.603
14.3576
16.8042
18.5001
19.1832
18.8133
17.5709
15.8157
14.0114
12.6332
12.0753
12.5767
14.1781
16.7184
19.8685
23.1952
26.2411
28.6046
30.0055
30.3249
29.6143
28.0755
26.0167
23.7955
21.7583
20.1882
19.2679
19.062
19.5211
20.5046
21.8164
23.2479
24.6193
25.8115
26.7832
27.5692
28.2618
28.9774
29.8181
30.8365
32.0126
33.2503
34.3954
35.2718
35.7293
35.6907
35.1865
34.3663
33.4813
32.8374
32.7266
33.3498
34.7487
36.7656
39.0454
41.0884
42.3493
42.3655
40.8851
37.9615
33.9782
29.5845
25.5431
22.5177
20.8557
20.4338
20.6299
20.4596
18.8671
15.1128
9.14959
1.86579
-4.91301
-8.71638
-6.98625
2.21585
19.5316
43.8577
72.2872
100.51
123.623
137.172
138.187
125.931
102.17
70.8664
37.3669
7.26877
-14.7504
-25.8608
-25.5504
-15.5467
0.757038
19.1969
35.8137
47.6676
53.3167
52.887
47.7732
40.0964
32.0894
25.5696
21.6141
20.4768
21.7214
24.4923
27.826
30.9156
33.2719
34.7623
35.547
35.9514
36.3245
36.923
37.8478
39.0391
40.323
41.4856
42.3544
42.8596
43.0635
43.1471
43.3616
43.9552
45.096
46.8121
48.9643
51.2629
53.3231
54.7494
55.2249
54.5842
52.8503
50.2262
47.0431
43.6799
40.4758
37.6578
35.3016
33.3343
31.5742
29.7959
27.8002
25.4707
22.8023
19.8959
16.9242
14.0805
11.5255
9.35026
7.56254
6.10313
4.88351
3.83368
2.94349
2.28293
1.99247
2.24371
3.18037
4.85674
7.19372
9.96884
12.8477
15.4521
17.4475
18.6261
18.96
18.607
17.866
17.0918
16.5971
16.568
17.0223
17.8227
18.7404
19.5483
20.1133
20.4537
20.7424
21.2508
22.2498
23.8994
26.1634
28.7803
31.3036
33.2054
34.015
33.4531
31.5221
28.5235
24.9967
21.5929
18.9198
17.3994
17.179
18.1169
19.846
21.8917
23.809
25.2968
26.2577
26.7898
27.1189
27.4983
28.1124
29.0158
30.127
31.2719
32.257
32.941
33.2755
33.301
33.1053
32.7664
32.3123
31.7232
30.9786
30.1311
29.3671
29.0093
29.436
30.9228
33.4515
36.5646
39.3429
40.563
39.0306
34.0203
25.6943
15.3472
5.35294
-1.24026
-1.41282
6.98253
24.4635
49.4814
78.4746
106.457
128.039
138.642
135.602
118.871
91.1105
57.1454
22.9037
-5.8888
-24.9313
-32.1882
-28.1553
-15.5205
1.65777
19.0105
32.876
41.0262
42.9562
39.717
33.3955
26.4222
20.9072
18.1712
18.5601
21.5434
26.0217
30.7262
34.5863
36.9747
37.786
37.3605
36.3022
35.2609
34.7459
35.0167
36.065
37.678
39.5475
41.3857
43.012
44.3883
45.6012
46.8039
48.1415
49.6871
51.4083
53.1738
54.7943
56.083
56.9138
57.2567
57.1802
56.8183
56.3153
55.7667
55.1759
54.4423
53.3851
51.7957
49.5014
46.4216
42.599
38.1958
33.4602
28.6726
24.0918
19.9167
16.2724
13.2229
10.7979
9.02004
7.91913
7.52321
7.83141
8.77904
10.2125
11.8899
13.5134
14.7913
15.5101
15.5966
15.1455
14.4013
13.6953
13.3544
13.6089
14.5283
16.0041
17.7874
19.5667
21.0636
22.1125
22.7016
22.9612
23.1061
23.3516
23.8326
24.5514
25.3729
26.0654
26.3744
26.105
25.1866
23.7021
21.8731
20.0104
18.4417
17.4419
17.1789
17.6892
18.8816
20.5653
22.4908
24.3931
26.0308
27.2148
27.8289
27.839
27.2938
26.3156
25.0795
23.7837
22.614
21.7097
21.14
20.8978
20.9147
21.0942
21.3519
21.6512
22.0186
22.5352
23.3021
24.3956
25.826
27.5194
29.3322
31.0931
32.6613
33.9744
35.0658
36.0408
37.0167
38.0505
39.0871
39.9556
40.4264
40.3117
39.573
38.3809
37.0878
36.0992
35.6757
35.7364
35.7524
34.8105
31.8706
26.1774
17.7084
7.50061
-2.2961
-8.72951
-8.70205
0.162397
18.6725
45.5059
77.1421
108.38
133.369
146.918
145.749
129.366
100.278
63.494
25.4288
-7.53011
-30.4055
-40.6223
-38.3753
-26.315
-8.68074
9.85363
25.2999
35.1606
38.7512
37.0195
31.9839
25.9953
21.0518
18.3418
18.1024
19.7757
22.3618
24.8313
26.4619
27.0148
26.7257
26.1472
25.916
26.5305
28.2029
30.8198
34.0056
37.2544
40.0804
42.1441
43.3204
43.7005
43.5379
43.1608
42.8798
42.9142
43.3543
44.1612
45.2011
46.2976
47.2877
48.0644
48.5962
48.9181
49.0987
49.1933
49.1987
49.0237
48.4888
47.3578
45.3977
42.4521
38.5082
33.7369
28.4912
23.2577
18.5692
14.8979
12.5561
11.6296
11.961
13.1899
14.8373
16.4135
17.5208
17.9257
17.584
16.6172
15.2532
13.7516
12.3385
11.1693
10.3261
9.84454
9.75324
10.1061
10.9901
12.5027
14.7036
17.5593
20.9014
24.4199
27.6997
30.2976
31.839
32.1088
31.109
29.0639
26.3696
23.5015
20.9051
18.9017
17.6343
17.0684
17.0406
17.3392
17.7852
18.2894
18.865
19.5961
20.5755
21.8351
23.2983
24.7714
25.9824
26.6546
26.5932
25.7559
24.2848
22.4862
20.7633
19.5199
19.0629
19.5301
20.8627
22.8283
25.0859
27.2711
29.0796
30.326
30.966
31.0827
30.8445
30.4523
30.0909
29.8974
29.9495
30.2724
30.8549
31.6674
32.6758
33.847
35.1484
36.5447
37.9938
39.4441
40.8328
42.0854
43.1184
43.8468
44.2009
44.1512
43.7368
43.0838
42.3986
41.9224
41.8445
42.1922
42.7319
42.9293
42.0136
39.1649
33.8046
25.9219
16.3342
6.76784
-0.321821
-2.20951
3.43105
17.8008
40.3932
68.7526
98.7005
125.04
142.61
147.456
137.806
114.602
81.4129
43.7269
7.79033
-20.7285
-37.9121
-42.3194
-35.1024
-19.5172
0.00878288
18.9856
33.8529
42.6208
45.0398
42.3214
36.5468
29.9676
24.4038
20.8838
19.5806
20.0028
21.3345
22.7895
23.8674
24.4506
24.7424
25.0993
25.8362
27.0816
28.7288
30.4909
32.0285
33.0978
33.66
33.9164
34.2541
35.1251
36.8953
39.7154
43.4511
47.6958
51.8597
55.312
57.5331
58.2391
57.4431
55.4418
52.7315
49.8786
47.3765
45.5275
44.3759
43.7084
43.1211
42.1341
40.3275
37.4646
33.5728
28.9608
24.167
19.8473
16.6297
14.9665
15.0218
16.6224
19.2859
22.3222
24.9842
26.6334
26.8783
25.6518
23.2106
20.0564
16.8041
14.0306
12.1459
11.3181
11.4671
12.3239
13.5316
14.7556
15.7712
16.5036
17.0156
17.4516
17.9617
18.6323
19.4469
20.2884
20.979
21.3444
21.2772
20.7812
19.9796
19.0857
18.3441
17.9608
18.0417
18.5578
19.3474
20.1548
20.6952
20.7301
20.133
18.9288
17.2963
15.532
13.984
12.971
12.7071
13.251
14.4933
16.1869
18.012
19.6607
20.9176
21.7142
22.1413
22.4149
22.8037
23.5387
24.7315
26.3256
28.097
29.7062
30.7891
31.061
30.4053
28.9209
26.9117
24.8231
23.1398
22.273
22.4702
23.768
26.0011
28.8613
31.9831
35.0312
37.7601
40.0331
41.7998
43.05
43.7706
43.9299
43.5018
42.523
41.1537
39.7053
38.6005
38.2543
38.8992
40.4073
42.1885
43.2311
42.322
38.4215
31.1065
20.9446
9.65438
-0.0560892
-4.99863
-2.27895
9.84489
31.2577
59.6643
90.7946
119.148
139.134
146.339
138.6
116.592
83.759
45.5911
8.42561
-21.9288
-41.3949
-48.3642
-43.8129
-30.806
-13.5646
3.62996
17.4029
25.8936
28.8964
27.5653
23.8273
19.7089
16.7714
15.7925
16.7349
18.957
21.5545
23.7067
24.9213
25.1238
24.5964
23.8169
23.2698
23.2975
24.0323
25.4139
27.2696
29.4146
31.7323
34.206
36.8989
39.8946
43.2252
46.8167
50.4708
53.8895
56.7358
58.7116
59.6291
59.4577
58.333
56.5283
54.3944
52.2847
50.4816
49.1414
48.2675
47.718
47.2441
46.5522
45.3744
43.5352
40.9965
37.8742
34.4177
30.9594
27.8413
25.3388
23.5974
22.6016
22.1841
22.0759
21.9851
21.6846
21.0838
20.2634
19.4605
19.0055
19.226
20.3433
22.3921
25.1871
28.3505
31.3936
33.8351
35.3216
35.7179
35.1399
33.9205
32.5152
31.3748
30.82
30.9539
31.6385
32.5409
33.2379
33.3467
32.645
31.1436
29.0909
26.9063
25.0627
23.9519
23.7719
24.4709
25.7615
27.204
28.3294
28.7708
28.3602
27.1669
25.4678
23.6597
22.1441
21.2177
21.0016
21.4264
22.2742
23.259
24.1183
24.6863
24.9283
24.9278
24.8374
24.8117
24.9488
25.257
25.6588
26.0255
26.2286
26.1894
25.908
25.4657
25.0013
24.6726
24.618
24.9297
25.6438
26.7457
28.1804
29.8589
31.6553
33.3964
34.8524
35.7424
35.7636
34.6448
32.2164
28.4747
23.6212
18.0559
12.321
7.0029
2.61738
-0.493321
-2.22222
-2.70257
-2.25603
-1.3007
-0.246441
0.593443
1.05234
1.11399
0.876029
0.491048
0.106736
-0.176489
-0.320999
-0.341943
-0.281609
-0.181782
-0.0658629
0.0634868
0.212907
0.380703
0.542872
0.650675
0.642455
0.466248
0.104918
-0.406081
-0.976117
-1.47467
-1.761
-1.71943
-1.28927
-0.479508
0.636525
1.94512
3.32696
4.69112
5.99682
7.25513
8.50989
9.80431
11.1452
12.4788
13.6892
14.6227
15.1339
15.1404
14.6668
13.8641
12.9919
12.3662
12.2822
12.9358
14.3645
16.4292
18.8442
21.2507
23.3142
24.8189
25.7301
26.2059
26.5528
27.136
28.2713
30.1302
32.6867
35.7209
38.8795
41.772
44.0731
45.599
46.3351
46.4075
46.012
45.3262
44.436
43.3035
41.7868
39.705
36.9239
33.4341
29.3889
25.091
20.927
17.2723
14.3947
12.3887
11.1605
10.4683
10.0031
9.4849
8.74364
7.76097
6.66229
5.6647
4.9998
4.83693
5.23036
6.1052
7.28312
8.53725
9.65701
10.5025
11.0327
11.3014
11.4248
11.5338
11.727
12.0403
12.4407
12.8467
13.166
13.3371
13.3602
13.3053
13.2936
13.4567
13.8863
14.591
15.4774
16.3632
17.0233
17.2576
16.9593
16.1643
15.063
13.9667
13.2369
13.1943
14.0325
15.7629
18.2046
21.0245
23.8152
26.1903
27.8696
28.7345
28.84
28.3853
27.6532
26.9392
26.4868
26.4444
26.8509
27.646
28.7003
29.8525
30.9457
31.8565
32.5114
32.8921
33.0285
32.9837
32.8324
32.6392
32.4407
32.2382
32.0023
31.6917
31.2792
30.7765
30.2482
29.8076
29.5919
29.7232
30.2691
31.2164
32.4695
33.8783
35.2854
36.5765
37.7134
38.7331
39.7121
40.706
41.6916
42.5402
43.0424
42.9869
42.2687
40.9857
39.4732
38.2414
37.8122
38.4925
40.157
42.1331
43.2613
42.1624
37.6727
29.3381
17.8139
5.01395
-6.09657
-12.0763
-9.84774
2.39959
24.4939
53.9846
86.4007
116.057
137.242
145.512
138.753
117.736
86.0032
49.1007
13.3592
-15.4838
-33.4671
-39.1152
-33.526
-19.8591
-2.3983
14.5406
27.5713
34.8466
36.2085
32.9083
27.0315
20.821
16.0902
13.8619
14.2852
16.7978
20.4411
24.2111
27.3407
29.4512
30.5585
30.9668
31.1055
31.3702
32.0147
33.113
34.5872
36.2764
38.0146
39.6912
41.2771
42.8154
44.3868
46.0672
47.8917
49.8378
51.8288
53.754
55.4952
56.9516
58.0551
58.7749
59.112
59.0891
58.7385
58.0908
57.1646
55.9565
54.4319
52.5206
50.1207
47.1178
43.4207
39.0094
33.9859
28.6079
23.2923
18.5721
15.011
13.0871
13.0739
14.9519
18.3783
22.7317
27.2259
31.0687
33.626
34.5485
33.8286
31.7735
28.9047
25.8145
23.0213
20.8639
19.4595
18.7315
18.4893
18.528
18.7123
19.0164
19.5094
20.295
21.4313
22.8633
24.3963
25.7254
26.5138
26.4989
25.5885
23.9161
21.8298
19.8134
18.3587
17.8247
18.3263
19.6879
21.4805
23.1352
24.1025
24.0127
22.7898
20.6834
18.2079
16.0043
14.6623
14.5551
15.7321
17.901
20.5036
22.8619
24.3554
24.5777
23.4341
21.1542
18.2243
15.2593
12.8527
11.4444
11.2364
12.1718
13.9756
16.2388
18.521
20.4454
21.7661
22.3978
22.4086
21.9818
21.3614
20.7931
20.4746
20.5217
20.9577
21.7252
22.7164
23.8154
24.9402
26.0706
27.2545
28.5831
30.1431
31.9562
33.9295
35.8373
37.3526
38.1268
37.9016
36.6179
34.4779
31.9255
29.5309
27.801
26.9679
26.8342
26.748
25.7533
22.9062
17.6845
10.3694
2.25621
-4.4188
-6.87911
-2.48132
10.4923
32.1386
60.5564
91.9455
121.218
143.015
152.899
148.414
129.738
99.7335
63.3704
26.6508
-4.68546
-26.3562
-36.3358
-35.0816
-25.1664
-10.4554
4.92636
17.5549
25.3627
27.8605
25.9304
21.3091
15.9501
11.4579
8.73787
7.92086
8.53123
9.80237
11.0146
11.7464
11.9747
12.019
12.3733
13.498
15.6479
18.7854
22.5978
26.5994
30.2771
33.2311
35.2684
36.4298
36.9512
37.1796
37.4723
38.1105
39.245
40.884
42.917
45.1614
47.4166
49.5073
51.3096
52.7544
53.8127
54.4702
54.7001
54.4445
53.6114
52.0884
49.7739
46.6175
42.6605
38.0634
33.1107
28.1846
23.71
20.0768
17.5588
16.248
16.024
16.5716
17.4481
18.1852
18.4049
17.9168
16.7717
15.2538
13.8118
12.9446
13.0724
14.4258
16.985
20.4831
24.4721
28.4328
31.897
34.548
36.2748
37.167
37.4575
37.433
37.3401
37.3172
37.3674
37.3801
37.1903
36.6548
35.7212
34.4679
33.1018
31.9157
31.2143
31.2324
32.0638
33.6238
35.6523
37.7608
39.5097
40.4993
40.4523
39.2687
37.041
34.0278
30.5926
27.1258
23.968
21.3535
19.3853
18.0451
17.2288
16.795
16.6097
16.5742
16.63
16.7455
16.8926
17.028
17.0889
17.0074
16.7384
16.2911
15.7481
15.2626
15.0304
15.2418
16.0293
17.4275
19.3606
21.6631
24.1298
26.5782
28.9031
31.1044
33.2743
35.5476
38.0286
40.7197
43.4808
46.0387
48.0542
49.2331
49.4498
48.8391
47.8162
46.9972
47.0246
48.3344
50.9324
54.2623
57.2355
58.4565
56.6199
50.9921
41.8409
30.6648
20.102
13.4772
14.048
24.1115
44.2054
72.6426
105.555
137.501
162.536
175.513
173.284
155.496
124.763
86.1438
46.0514
10.867
-14.4002
-27.0751
-27.1857
-17.1828
-1.12972
16.3922
31.3638
41.1283
44.7491
42.898
37.375
30.4421
24.1755
19.9999
18.4895
19.4327
22.0824
25.4824
28.762
31.3254
32.9145
33.5639
33.4953
33.0038
32.3726
31.832
31.5556
31.6756
32.2966
33.4959
35.3086
37.7075
40.5889
43.7759
47.041
50.1432
52.8697
55.0696
56.6723
57.6851
58.1764
58.2478
58.0054
57.5368
56.8964
56.101
55.1329
53.9503
52.5001
50.7341
48.6245
46.1779
43.4445
40.5199
37.5374
34.6506
32.009
29.7313
27.883
26.4635
25.4081
24.6035
23.9156
23.221
22.4369
21.5403
20.5726
19.629
18.8331
18.3059
18.1337
18.3448
18.8999
19.6998
20.6072
21.4797
22.2022
22.7131
23.0134
23.1581
23.2305
23.3073
23.4259
23.5643
23.6421
23.5436
23.1567
22.4168
21.3403
20.0359
18.6897
17.525
16.7499
16.5055
16.8329
17.6648
18.8454
20.1691
21.426
22.4403
23.091
23.3133
23.0857
22.4124
21.3114
19.8145
17.9794
15.9054
13.7434
11.6892
9.95769
8.74006
8.15772
8.22654
8.84591
9.8189
10.9004
11.8602
12.5422
12.9025
13.0137
13.0365
13.167
13.5799
14.385
15.6117
17.2231
19.1507
21.3326
23.7343
26.3426
29.1304
32.011
34.8034
37.2363
39.0022
39.8561
39.7281
38.806
37.5414
36.5534
36.4353
37.5141
39.6411
42.1042
43.7286
43.1812
39.4245
32.1998
22.3806
12.0499
4.21225
2.15497
8.58621
24.7668
49.8886
80.9119
112.968
140.28
157.402
160.484
148.218
122.232
86.7919
47.8937
11.9631
-15.5089
-31.0564
-33.8061
-25.4138
-9.43605
9.66155
27.581
41.0818
48.4937
49.7801
46.2097
39.7835
32.6053
26.3676
22.0598
19.926
19.6274
20.515
21.9099
23.3084
24.4714
25.4008
26.2404
27.1554
28.2377
29.4664
30.7296
31.8879
32.8503
33.631
34.3641
35.2723
36.599
38.528
41.1183
44.2743
47.7637
51.2753
54.4989
57.2008
59.2697
60.7203
61.6532
62.189
62.4001
62.2685
61.6848
60.4931
58.5643
55.8725
52.5448
48.8614
45.2022
41.9508
39.3876
37.6039
36.4683
35.6582
34.75
33.3434
31.1819
28.2355
24.7201
21.0488
17.7286
15.2335
13.887
13.7878
14.7938
16.5673
18.6651
20.647
22.1755
23.0814
23.3823
23.2533
22.962
22.7861
22.9354
23.4981
24.4218
25.5335
26.5903
27.3485
27.6312
27.3791
26.6693
25.6995
24.7389
24.0605
23.8698
24.2504
25.1384
26.3356
27.5557
28.4938
28.9006
28.6431
27.7351
26.3309
24.6844
23.083
21.7753
20.9105
20.5057
20.4486
20.5348
20.5293
20.2353
19.5515
18.5037
17.2397
15.9923
15.0183
14.5317
14.649
15.3614
16.5405
17.9748
19.4246
20.6791
21.5983
22.1308
22.3022
22.1858
21.8658
21.4118
20.8738
20.3007
19.7742
19.4395
19.5149
20.2643
21.931
24.646
28.3376
32.6782
37.0978
40.878
43.3159
43.9189
42.5715
39.6152
35.7957
32.0726
29.3291
28.0655
28.1774
28.9142
29.0663
27.3612
22.9733
15.9948
7.70117
0.480454
-2.61569
1.37057
14.4162
36.7455
66.4154
99.4267
130.39
153.625
164.434
160.224
141.185
110.326
72.846
35.0002
2.7412
-19.5179
-29.7202
-28.3812
-18.1929
-3.16437
12.4462
25.1178
32.7365
34.8204
32.3098
27.0427
21.1066
16.2587
13.5563
13.2562
14.9534
17.8679
21.162
24.1878
26.6063
28.374
29.636
30.5891
31.371
32.0148
32.4721
32.6807
32.6417
32.4678
32.3817
32.6651
33.5776
35.2749
37.7551
40.8523
44.2763
47.6868
50.7749
53.3281
55.2595
56.5962
57.4341
57.8777
57.9852
57.7384
57.0435
55.7638
53.7695
50.9894
47.4465
43.2681
38.6677
33.9045
29.2366
24.8797
20.9841
17.635
14.8703
12.7083
11.1695
10.2833
10.0754
10.538
11.597
13.0891
14.7631
16.3126
17.435
17.9031
17.6292
16.6992
15.364
13.9843
12.9411
12.5349
12.901
13.968
15.4715
17.0233
18.218
18.7475
18.4917
17.5578
16.2564
15.0198
14.2838
14.3668
15.3805
17.196
19.4778
21.7725
23.6285
24.7116
24.8824
24.2159
22.958
21.436
19.9512
18.6882
17.6679
16.7567
15.7274
14.3493
12.4765
10.108
7.39855
4.6216
2.09601
0.102493
-1.18501
-1.7337
-1.64573
-1.11835
-0.386801
0.330962
0.872931
1.14889
1.13655
0.867118
0.409926
-0.138062
-0.658953
-1.02297
-1.10711
-0.826499
-0.173281
0.750312
1.72267
2.43256
2.55256
1.84513
0.274202
-1.91487
-4.18258
-5.77143
-5.86739
-3.81444
0.673588
7.3693
15.5112
23.9321
31.3183
36.5414
38.9683
38.6554
36.3525
33.2957
30.8309
29.9705
31.0201
33.4051
35.7816
36.4332
33.8634
27.4173
17.7366
6.87317
-2.02421
-5.41974
-0.339184
14.6892
38.9738
69.4965
101.344
128.669
145.967
149.358
137.531
112.118
77.375
39.2554
4.10309
-22.7037
-37.8261
-40.5078
-32.4886
-17.3541
0.471522
16.8118
28.6271
34.5138
34.7376
30.8591
25.1033
19.6732
16.1931
15.4025
17.1402
20.5708
24.55
28.0058
30.229
31.0079
30.6001
29.5759
28.602
28.2359
28.7879
30.2792
32.4917
35.0798
37.7018
40.1271
42.2897
44.2801
46.2834
48.4921
51.0234
53.8679
56.8844
59.8391
62.4732
64.5738
66.0262
66.8303
67.0783
66.9049
66.4289
65.7067
64.715
63.3669
61.5537
59.1979
56.2961
52.937
49.2877
45.5542
41.9285
38.5435
35.4498
32.6235
30.0013
27.5303
25.2126
23.1283
21.4246
20.2728
19.8045
20.0491
20.8926
22.0768
23.2438
24.0175
24.1026
23.3715
21.9161
20.0419
18.2046
16.9007
16.5387
17.325
19.1966
21.8199
24.6594
27.1007
28.5969
28.8006
27.6466
25.3642
22.4157
19.3784
16.8033
15.0869
14.3912
14.6305
15.523
16.6913
17.7765
18.5349
18.8889
18.9214
18.8209
18.799
19.009
19.4933
20.1744
20.8905
21.4615
21.7606
21.7681
21.588
21.4236
21.5197
22.0911
23.2588
25.0135
27.2158
29.63
31.9796
34.0087
35.5296
36.4498
36.7726
36.5794
36.002
35.1959
34.3224
33.5381
32.9912
32.8162
33.1218
33.972
35.3627
37.2047
39.3219
41.4734
43.3995
44.8845
45.8196
46.2452
46.3548
46.4504
46.8546
47.801
49.3331
51.2509
53.1298
54.4201
54.6077
53.3904
50.8122
47.2981
43.5599
40.3824
38.3435
37.5587
37.5488
37.3044
35.5677
31.2787
24.0633
14.6041
4.74323
-2.77452
-4.90556
0.863577
15.6766
38.7048
66.9901
95.8379
119.713
133.444
133.444
118.624
90.7488
54.1293
14.7094
-21.2188
-48.3542
-63.4448
-65.8208
-57.3003
-41.5354
-23.0076
-5.95047
6.52641
12.9238
13.3822
9.31711
2.81709
-4.00038
-9.50063
-12.8037
-13.7948
-12.9286
-10.9301
-8.50235
-6.12632
-3.98936
-2.03312
-0.0742758
2.06071
4.43759
6.98026
9.50058
11.77
13.6003
14.9045
15.7194
16.1894
16.5225
16.9375
17.6217
18.7075
20.2723
22.3518
24.9563
28.078
31.6831
35.691
39.9492
44.2165
48.1676
51.4257
53.621
54.4645
53.8187
51.7459
48.5165
44.5724
40.4496
36.6766
33.6737
31.6764
30.7025
30.569
30.9524
31.4736
31.7857
31.6412
30.9269
29.6622
27.9711
26.0407
24.0827
22.3058
20.9018
20.0384
19.8487
20.412
21.7234
23.6613
25.9683
28.2585
30.0636
30.9135
30.4386
28.4681
25.0973
20.7004
15.8814
11.3678
7.87145
5.94881
5.8914
7.67309
10.9637
15.2029
19.7156
23.8407
27.0459
29.0074
29.6413
29.0884
27.6607
25.7634
23.8121
22.1589
21.04
20.5511
20.6524
21.1979
21.9828
22.7958
23.4671
23.9002
24.0816
24.0676
23.9518
23.8244
23.7339
23.6633
23.5282
23.198
22.5345
21.437
19.8811
17.9387
15.7751
13.6199
11.7233
10.3052
9.51365
9.40054
9.92108
10.9547
12.3401
13.9136
15.5391
17.1201
18.5924
19.8988
20.9578
21.6373
21.7514
21.0869
19.4637
16.8161
13.2753
9.21916
5.26076
2.15538
0.627944
1.15235
3.74047
7.81373
12.2244
15.4629
16.0354
12.936
6.08948
-3.38333
-13.1964
-20.2818
-21.4817
-14.4018
1.79117
25.8649
54.4941
82.7779
105.225
116.986
115.029
98.9428
71.1449
36.4158
0.862939
-29.4261
-49.701
-57.5062
-53.0524
-38.9378
-19.3298
1.14676
18.5083
30.2206
35.5432
35.3773
31.724
26.9517
23.0979
21.3916
22.0916
24.6339
27.9918
31.1052
33.2391
34.172
34.1841
33.881
33.9335
34.8302
36.7203
39.3878
42.3498
45.0352
46.98
47.9753
48.1285
47.8243
47.6049
48.0097
49.4223
51.9675
55.4806
59.5542
63.6439
67.2016
69.8025
71.2343
71.5305
70.9433
69.8665
68.7282
67.88
67.5065
67.5767
67.8462
67.9109
67.3013
65.5973
62.5401
58.1145
52.5831
46.4602
40.4292
35.2157
31.4443
29.508
29.48
31.0884
33.7623
36.7385
39.208
40.4715
40.071
37.871
34.076
29.1826
23.8797
18.9185
14.9776
12.5489
11.8606
12.85
15.1866
18.3393
21.6759
24.5774
26.5464
27.2925
26.7766
25.2052
22.9761
20.5836
18.5073
17.1063
16.5477
16.785
17.592
18.6422
19.6105
20.2682
20.543
20.5287
20.4417
20.5404
21.0328
22.0019
23.3724
24.927
26.3678
27.4018
27.8249
27.5793
26.7695
25.6343
24.4873
23.6435
23.3535
23.7616
24.895
26.6799
28.9778
31.6266
34.4763
37.4112
40.3558
43.2641
46.0978
48.7989
51.2629
53.3239
54.7588
55.3201
54.7975
53.0989
50.3309
46.8482
43.2399
40.2322
38.5123
38.5057
40.1723
42.8976
45.5467
46.71
45.1108
40.0798
31.9575
22.2733
13.594
9.01616
11.3878
22.4439
42.0986
68.1257
96.3744
121.529
138.258
142.485
132.434
109.168
76.4531
39.9566
5.97628
-19.9675
-34.3205
-36.1639
-27.2149
-11.1951
7.22944
23.6303
34.8081
39.3559
37.7012
31.6823
23.836
16.6297
11.8516
10.2948
11.7684
15.3669
19.8696
24.1312
27.3531
29.1892
29.6976
29.197
28.0993
26.7792
25.5096
24.4606
23.735
23.4076
23.5445
24.1947
25.3653
26.9975
28.9619
31.08
33.1656
35.0713
36.7205
38.1139
39.3089
40.3796
41.3757
42.2937
43.0729
43.6118
43.7992
43.5443
42.7945
41.5353
39.7768
37.5341
34.8168
31.6327
28.0095
24.0251
19.8349
15.6801
11.8708
8.74012
6.58059
5.57879
5.76584
6.9992
8.98173
11.3146
13.5715
15.3761
16.4665
16.7335
16.227
15.1338
13.7343
12.3492
11.2866
10.7965
11.0392
12.0682
13.8279
16.1661
18.8584
21.6433
24.2615
26.4953
28.1995
29.3173
29.878
29.9756
29.7337
29.2658
28.6411
27.8646
26.8757
25.5669
23.8144
21.5135
18.6087
15.1126
11.1102
6.74965
2.22448
-2.24767
-6.44595
-10.1642
-13.2258
-15.4967
-16.8966
-17.4078
-17.0809
-16.0326
-14.4357
-12.4997
-10.4458
-8.47888
-6.76456
-5.41247
-4.47072
-3.92959
-3.73215
-3.78722
-3.98087
-4.18393
-4.25519
-4.04269
-3.38678
-2.12947
-0.133404
2.68861
6.33676
10.6878
15.4708
20.2696
24.5627
27.8054
29.5464
29.5554
27.9272
25.1222
21.9109
19.2141
17.8591
18.3116
20.4627
23.5566
26.3161
27.2733
25.2419
19.8125
11.7117
2.88388
-3.7896
-5.11719
1.55489
17.4874
41.9331
71.9706
102.894
129.111
145.359
147.944
135.673
110.232
75.883
38.5534
4.53054
-20.9005
-34.5423
-35.8336
-26.7535
-11.1432
6.34415
21.3767
30.8755
33.5357
29.8604
21.7598
11.8751
2.83462
-3.36345
-5.71035
-4.24275
0.163635
6.16318
12.3495
17.5961
21.2576
23.2132
23.7726
23.5007
23.0189
22.8404
23.2708
24.3862
26.0775
28.1341
30.3375
32.5351
34.6756
36.8012
39.0052
41.3719
43.9224
46.5857
49.2051
51.5784
53.5168
54.9032
55.7263
56.0785
56.1155
55.9903
55.7838
55.4575
54.8453
53.6928
51.7321
48.7722
44.7764
39.9031
34.4957
29.0244
23.9947
19.8485
16.8826
15.205
14.7357
15.2471
16.4288
17.9578
19.5559
21.0231
22.2462
23.1844
23.8451
24.2577
24.4546
24.4628
24.3044
24.0045
23.5981
23.1352
22.6785
22.2944
22.0398
21.9469
22.01
22.1797
22.3667
22.4553
22.3268
21.8869
21.0908
19.96
18.5841
17.1072
15.7002
14.5263
13.7077
13.3038
13.3048
13.6413
14.2074
14.8866
15.5754
16.195
16.6929
17.0355
17.2001
17.1707
16.9449
16.5475
16.047
15.5637
15.2637
15.3314
15.9266
17.1353
18.9295
21.1517
23.5333
25.7485
27.4903
28.5504
28.8797
28.6075
28.0123
27.448
27.2448
27.6142
28.586
29.9993
31.5525
32.898
33.755
34.0042
33.7352
33.2282
32.8766
33.0723
34.0887
35.9979
38.6472
41.698
44.7138
47.2669
49.031
49.8351
49.6709
48.6634
47.0243
45.0103
42.8964
40.96
39.4587
38.5842
38.3851
38.6761
38.9711
38.4936
36.3051
31.5585
23.8362
13.4814
1.80067
-8.9716
-16.0081
-16.4967
-8.40022
8.82617
33.7783
63.0832
91.8865
114.782
126.984
125.445
109.645
81.8035
46.4606
9.50561
-23.0992
-46.5829
-58.3023
-58.1331
-48.2488
-32.3848
-14.8142
0.68124
11.5837
16.9905
17.5082
14.7824
10.843
7.47207
5.7646
5.97398
7.63738
9.89534
11.8752
13.0088
13.1937
12.7701
12.3474
12.5562
13.8187
16.2098
19.4479
23.0052
26.2907
28.8421
30.4622
31.262
31.6049
31.9765
32.83
34.456
36.9168
40.0585
43.5871
47.177
50.57
53.6329
56.3571
58.8086
61.0525
63.0846
64.7971
65.9909
66.4287
65.9075
64.3233
61.7043
58.2055
54.067
49.5589
44.931
40.3879
36.0914
32.1818
28.8005
26.095
24.1959
23.1702
22.9689
23.391
24.0884
24.6186
24.5385
23.5146
21.4168
18.366
14.7163
10.9764
7.6894
5.30521
4.08112
4.03568
4.96466
6.50939
8.25328
9.81749
10.9305
11.4581
11.3934
10.8205
9.86659
8.66217
7.31736
5.91681
4.52738
3.20939
2.02332
1.02778
0.270079
-0.225735
-0.467276
-0.494242
-0.370123
-0.167954
0.044961
0.218507
0.324609
0.355567
0.318387
0.228621
0.106375
-0.0248032
-0.137626
-0.202037
-0.189737
-0.0827206
0.116296
0.375743
0.63412
0.809278
0.818202
0.6036
0.160396
-0.445983
-1.07633
-1.5325
-1.58857
-1.03177
0.296404
2.46839
5.45545
9.1318
13.2956
17.701
22.0934
26.2412
29.961
33.1336
35.714
37.7348
39.3034
40.5888
41.7946
43.1166
44.6881
46.5235
48.4803
50.2574
51.4438
51.6194
50.4872
47.9999
44.4345
40.3737
36.5766
33.7557
32.3196
32.1643
32.6022
32.4886
30.549
25.8411
18.2222
8.66551
-0.715645
-7.00629
-7.15757
1.16009
18.7436
44.3302
74.5512
104.441
128.426
141.566
140.742
125.471
98.1091
63.3904
27.381
-3.86515
-25.6189
-35.4234
-33.454
-22.2328
-5.812
11.326
25.3488
33.8619
36.2378
33.4588
27.5805
21.0123
15.8323
13.3155
13.7662
16.6462
20.9078
25.3986
29.2075
31.8625
33.3526
34.0049
34.2851
34.6031
35.1854
36.0429
37.0274
37.9383
38.6318
39.0922
39.4421
39.896
40.6792
41.9461
43.727
45.9224
48.3426
50.7761
53.0611
55.1322
57.0266
58.8475
60.6981
62.6094
64.4895
66.1124
67.155
67.2721
66.1887
63.7818
60.1271
55.495
50.2972
44.9988
40.0203
35.6578
32.0414
29.1421
26.8203
24.8987
23.2346
21.7697
20.5416
19.6568
19.2341
19.3408
19.9419
20.8814
21.9037
22.7084
23.0252
22.6854
21.6679
20.1073
18.2583
16.4272
14.8894
13.8149
13.225
12.9913
12.8779
12.6151
11.9842
10.8887
9.39252
7.71343
6.17373
5.12043
4.8363
5.4649
6.96873
9.13097
11.5997
13.9634
15.8388
16.9504
17.1838
16.6002
15.412
13.9245
12.4586
11.2742
10.5096
10.154
10.0597
9.9902
9.69488
8.99098
7.83057
6.3334
4.7737
3.52041
2.94426
3.31506
4.71797
7.01413
9.86014
12.7847
15.3036
17.0429
17.8352
17.7614
17.1265
16.3752
15.9728
16.2849
17.4908
19.5524
22.245
25.2374
28.1932
30.8646
33.1505
35.1056
36.9025
38.7603
40.8613
43.2818
45.9523
48.6591
51.0869
52.8954
53.8133
53.7308
52.7652
51.277
49.819
49.0138
49.3756
51.1156
53.988
57.2412
59.7216
60.1433
57.485
51.4188
42.6445
32.9951
25.2269
22.4819
27.5144
41.8604
65.18
94.9851
126.886
155.359
174.879
181.17
172.233
148.896
114.709
75.1941
36.6458
4.76288
-16.5254
-25.7602
-24.027
-14.4209
-1.08658
11.889
21.4293
26.0382
25.8807
22.4175
17.7498
13.8973
12.2192
13.1227
16.0983
20.0235
23.6039
25.7998
26.1142
24.6749
22.1196
19.3466
17.2282
16.3779
17.032
19.0603
22.0784
25.6081
29.2252
32.6521
35.7779
38.616
41.2326
43.6792
45.9571
48.0231
49.8264
51.3539
52.6596
53.8613
55.1017
56.4885
58.0346
59.6238
61.0154
61.8898
61.9222
60.8612
58.5901
55.1521
50.7376
45.6395
40.1948
34.7293
29.5213
24.7874
20.6859
17.3284
14.7874
13.0961
12.238
12.1365
12.6513
13.5898
14.7344
15.879
16.8649
17.6054
18.0898
18.3696
18.5308
18.6641
18.8431
19.1164
19.513
20.0547
20.7667
21.6787
22.814
24.1701
25.6984
27.2923
28.7924
30.007
30.7469
30.8641
30.2852
29.0311
27.2213
25.0609
22.8171
20.7866
19.2601
18.4839
18.6221
19.7221
21.6889
24.2779
27.1128
29.7341
31.6744
32.5497
32.1456
30.4766
27.799
24.5681
21.3464
18.6827
16.9926
16.4728
17.072
18.5264
20.4489
22.4451
24.2212
25.6523
26.7926
27.8278
28.989
30.4595
32.3067
34.4634
36.7613
39.0036
41.0465
42.8556
44.5165
46.1901
48.0339
50.1197
52.3869
54.6565
56.7095
58.4008
59.7636
61.0495
62.6695
65.0344
68.3385
72.3627
76.3885
79.2898
79.8211
77.048
70.8035
62.0157
52.7655
45.9909
44.8585
51.9271
68.3177
93.1311
123.315
154.076
179.778
195.152
196.494
182.582
155.024
117.978
77.2633
39.121
8.90619
-9.95562
-16.5142
-12.2416
-0.440021
14.6975
29.1116
39.7293
44.9596
44.7637
40.3479
33.6182
26.5741
20.8073
17.2104
15.9286
16.5137
18.194
20.161
21.7901
22.7511
23.0048
22.7173
22.1398
21.5018
20.9494
20.5371
20.2651
20.134
20.192
20.5522
21.3719
22.802
24.9242
27.6995
30.9493
34.3795
37.6421
40.4196
42.5041
43.8469
44.5595
44.8657
45.0161
45.1941
45.4435
45.6435
45.541
44.8332
43.2728
40.7638
37.4144
33.5285
29.5368
25.888
22.9334
20.8413
19.5668
18.8853
18.4774
18.0368
17.3681
16.442
15.3961
14.4811
13.9744
14.0883
14.9024
16.339
18.1853
20.1531
21.9541
23.3668
24.2775
24.6857
24.6793
24.3911
23.9555
23.4796
23.0372
22.6831
22.479
22.5167
22.9253
23.8571
25.4524
27.7932
30.8597
34.5046
38.453
42.334
45.7342
48.2649
49.6269
49.6597
48.3672
45.9152
42.6052
38.8279
35.007
31.5393
28.7395
26.7964
25.7463
25.4694
25.7113
26.1311
26.3682
26.1189
25.2058
23.626
21.5621
19.354
17.4325
16.2299
16.0846
17.1619
19.406
22.5329
26.0651
29.4033
31.9228
33.0847
32.5442
30.2415
26.4545
21.794
17.1238
13.4056
11.4811
11.8359
14.4053
18.4921
22.8514
25.9603
26.4341
23.4953
17.3609
9.40886
2.0273
-1.87179
0.411408
10.5536
28.5493
52.4151
78.3918
101.644
117.318
121.696
113.155
92.6497
63.5818
31.073
0.813975
-22.2088
-34.7841
-36.0779
-27.6328
-12.7977
4.23009
19.4754
30.0856
34.8456
34.218
29.9514
24.4159
19.8764
17.9057
19.075
22.9644
28.4415
34.0912
38.6535
41.3494
42.0199
41.0718
39.2751
37.4932
36.4308
36.4688
37.6174
39.5842
41.9191
44.1847
46.0987
47.6095
48.8907
50.2627
52.0713
54.5614
57.7838
61.5604
65.5153
69.1608
72.0117
73.695
74.0263
73.0342
70.9309
68.0424
64.7216
61.2707
57.8919
54.6756
51.621
48.676
45.7776
42.8798
39.962
37.0209
34.0573
31.0679
28.0512
25.0261
22.055
19.2587
16.8098
14.9011
13.6921
13.2517
13.5143
14.272
15.2084
15.9729
16.274
15.9661
15.1005
13.9215
12.8062
12.1614
12.3075
13.3855
15.3136
17.8104
20.4759
22.907
24.8111
26.0832
26.8214
27.2775
27.7595
28.5174
29.6497
31.0621
32.491
33.5839
34.0124
33.5795
32.289
30.3537
28.1425
26.0815
24.543
23.7542
23.7532
24.4009
25.4414
26.5866
27.597
28.3325
28.7619
28.9341
28.929
28.8106
28.6045
28.3064
27.9177
27.4878
27.1385
27.0519
27.4141
28.3308
29.7416
31.372
32.7544
33.3277
32.6
30.3292
26.6605
22.1614
17.719
14.3071
12.6764
13.0602
15.0008
17.3802
18.6882
17.4828
12.9302
5.25998
-4.02749
-12.3145
-16.3979
-13.3028
-1.17889
19.9681
47.9445
78.5761
106.459
126.104
133.194
125.646
104.185
72.261
35.3335
-0.317304
-28.9447
-46.5208
-51.4666
-44.774
-29.5297
-10.005
9.42527
25.2506
35.4551
39.6983
39.0652
35.515
31.2193
27.9786
26.8554
28.0785
31.1902
35.3445
39.6422
43.4009
46.2961
48.3632
49.8911
51.2649
52.8166
54.7287
57.0073
59.5167
62.0496
64.4014
66.4222
68.0357
69.2265
70.0109
70.4091
70.4327
70.0935
69.4279
68.5227
67.5263
66.6335
66.0407
65.8812
66.16
66.711
67.1969
67.1596
66.1138
63.6647
59.6152
54.0349
47.2671
39.8675
32.49
25.7475
20.0845
15.6961
12.5141
10.2614
8.55777
7.04454
5.49176
3.85704
2.28049
1.0194
0.344234
0.429005
1.27094
2.66548
4.24652
5.58248
6.30152
6.20988
5.36765
4.09711
2.91703
2.41735
3.10577
5.26749
8.87704
13.5882
18.8071
23.8316
28.0195
30.9424
32.4829
32.8498
32.5076
32.0411
31.993
32.7189
34.2987
36.5273
38.9824
41.1484
42.5589
42.9184
42.1714
40.5037
38.2814
35.95
33.9235
32.4949
31.7885
31.7589
32.2312
32.9622
33.702
34.2414
34.4342
34.199
33.5066
32.3667
30.8186
28.9321
26.812
24.6023
22.4811
20.6445
19.2811
18.5415
18.5119
19.1955
20.5056
22.269
24.2391
26.1169
27.582
28.3363
28.1601
26.9724
24.8815
22.2013
19.4134
17.0636
15.6041
15.22
15.6982
16.4011
16.3923
14.7153
10.7742
4.71286
-2.34125
-8.28604
-10.373
-5.82771
7.36232
29.6949
59.6637
93.7179
126.753
153.071
167.603
167.106
151.015
121.707
84.0865
44.5775
9.7509
-15.0638
-26.8462
-25.3815
-13.0855
5.75943
26.1345
43.4757
54.6305
58.3699
55.3802
47.7984
38.4674
30.1321
24.7876
23.3187
25.4748
30.1323
35.7272
40.7216
43.9781
44.9658
43.7793
41.0022
37.4807
34.0827
31.5027
30.1505
30.1287
31.2815
33.285
35.7451
38.2797
40.5719
42.3962
43.6232
44.215
44.2176
43.753
43.0066
42.2064
41.5887
41.352
41.6066
42.3324
43.3577
44.3703
44.9642
44.715
43.2701
40.4335
36.2247
30.8976
24.9126
18.867
13.3972
9.07114
6.29306
5.23649
5.8182
7.71606
10.4273
13.3566
15.9193
17.6419
18.2431
17.6799
16.1506
14.0509
11.8922
10.1959
9.38602
9.70313
11.1593
13.5443
16.4824
19.5237
22.2498
24.3639
25.7458
26.4585
26.7078
26.7702
26.9103
27.3127
28.0453
29.0606
30.2294
31.3911
32.4028
33.1686
33.6447
33.82
33.6868
33.2157
32.3507
31.0284
29.2192
26.9739
24.4593
21.9623
19.8547
18.5204
18.2604
19.2008
21.2306
23.9902
26.9207
29.3658
30.7047
30.483
28.5116
24.9072
20.0663
14.5804
9.11551
4.28652
0.553909
-1.8364
-2.86548
-2.71311
-1.70412
-0.245501
1.23502
2.34566
2.78457
2.39262
1.19998
-0.548039
-2.40634
-3.80446
-4.18309
-3.17168
-0.760557
2.59486
5.99634
8.28198
8.34482
5.51914
-0.0787608
-7.37913
-14.4501
-18.8772
-18.3667
-11.427
2.06507
20.5993
41.1828
59.9128
72.8514
76.9852
71.0126
55.7377
33.9506
9.81233
-12.0979
-27.826
-34.9051
-32.8246
-23.0039
-8.30899
7.73131
21.7858
31.4335
35.5677
34.4284
29.3109
22.0747
14.6121
8.42003
4.36337
2.64909
2.96638
4.71224
7.21612
9.90052
12.3518
14.3131
15.6349
16.2247
16.027
15.0401
13.3583
11.2144
8.99294
7.19986
6.38594
7.04182
9.49109
13.8107
19.8008
27.012
34.8239
42.5559
49.5829
55.4329
59.8467
62.7908
64.4283
65.0569
65.0323
64.6928
64.2988
63.9964
63.8062
63.6379
63.3231
62.6615
61.4709
59.6348
57.1373
54.0801
50.6754
47.213
44.008
41.337
39.3793
38.1776
37.6299
37.5183
37.5653
37.5055
37.1494
36.4203
35.3539
34.0602
32.6632
31.2399
29.7817
28.1949
26.3412
24.105
21.4632
18.5317
15.5668
12.9188
10.9469
9.92369
9.95668
10.9527
12.6358
14.6127
16.4642
17.8357
18.5008
18.3851
17.5492
16.145
14.364
12.3961
10.4082
8.5421
6.92221
5.6593
4.84247
4.51726
4.65822
5.14947
5.78655
6.30622
6.44056
5.98153
4.83679
3.05873
0.836844
-1.54472
-3.77107
-5.56229
-6.72191
-7.1566
-6.8671
-5.92098
-4.42343
-2.50047
-0.300398
1.99263
4.14813
5.90015
6.99024
7.23906
6.6251
5.33696
3.7647
2.41054
1.72683
1.92196
2.80049
3.71019
3.64939
1.54271
-3.36518
-11.1037
-20.6941
-30.1164
-36.5977
-37.2032
-29.6141
-12.8966
11.962
41.9393
72.3772
97.8486
113.311
115.271
102.65
77.1358
42.8804
5.63618
-28.4792
-54.2731
-68.5072
-70.4245
-61.6754
-45.7005
-26.7688
-8.9398
4.78639
12.9442
15.6355
14.1777
10.5187
6.60854
3.89838
3.07606
4.06137
6.21051
8.63082
10.4963
11.277
10.839
9.4144
7.48171
5.60643
4.29484
3.89439
4.55334
6.23359
8.75818
11.8722
15.2998
18.7862
22.1232
25.1595
27.8027
30.0166
31.8179
33.2719
34.4857
35.5943
36.7394
38.0389
39.5535
41.2558
43.0152
44.605
45.7376
46.1236
45.5434
43.9118
41.3177
38.022
34.4108
30.9132
27.9046
25.6227
24.1219
23.2782
22.8453
22.5435
22.1525
21.5807
20.8876
20.2542
19.9124
20.0567
20.7685
21.9778
23.4741
24.9632
26.1512
26.8294
26.9346
26.5672
25.9629
25.4284
25.259
25.662
26.704
28.2953
30.2112
32.1437
33.7699
34.8221
35.1443
34.7262
33.7075
32.3521
30.9968
29.983
29.584
29.9419
31.0296
32.6463
34.453
36.0403
37.0159
37.0919
36.1491
34.2632
31.6841
28.7751
25.927
23.4715
21.6171
20.4252
19.831
19.6999
19.9014
20.3733
21.1532
22.3652
24.1599
26.6269
29.7058
33.1292
36.4256
38.9933
40.2381
39.7408
37.4088
33.5575
28.8809
24.3009
20.7176
18.7281
18.3975
19.1726
19.9946
19.6133
17.0378
12.0001
5.27837
-1.2542
-4.92811
-2.89585
7.06149
25.7504
52.0389
82.7769
113.245
138.065
152.38
152.993
139.194
113.01
78.8335
42.4784
9.92764
-13.9315
-26.264
-26.7193
-17.2656
-1.51278
16.2636
32.1296
43.2817
48.4554
47.9106
43.0675
35.9456
28.5831
22.5857
18.888
17.7351
18.8303
21.5622
25.2264
29.1836
32.9357
36.134
38.5528
40.0624
40.6206
40.2836
39.2214
37.7171
36.1354
34.8584
34.2031
34.3421
35.2548
36.7242
38.3859
39.8148
40.6299
40.5859
39.6311
37.9141
35.7415
33.4967
31.5435
30.1377
29.3693
29.1484
29.2352
29.3061
29.037
28.1827
26.6323
24.4286
21.7493
18.8568
16.032
13.5125
11.4501
9.89777
8.82699
8.16443
7.83369
7.78466
7.99875
8.46705
9.14885
9.92663
10.5772
10.7751
10.1363
8.29613
5.00416
0.210638
-5.88187
-12.8201
-19.9599
-26.5736
-31.9801
-35.6656
-37.3672
-37.0997
-35.1219
-31.8572
-27.7921
-23.3809
-18.9794
-14.8188
-11.0165
-7.60896
-4.58779
-1.92204
0.43974
2.58359
4.64663
6.81981
9.32542
12.3687
16.0754
20.4357
25.2779
30.2859
35.0644
39.235
42.5394
44.9168
46.5319
47.7435
49.0202
50.8268
53.512
57.227
61.8903
67.204
72.7081
77.8556
82.0895
84.9122
85.9447
84.9795
82.0286
77.3611
71.5117
65.2385
59.4112
54.8329
52.0231
51.0215
51.2871
51.7549
51.0821
48.0511
42.0383
33.4097
23.6961
15.4412
11.7007
15.2761
27.8646
49.3622
77.5438
108.263
136.179
155.865
163.044
155.622
134.257
102.286
65.0304
28.634
-1.26003
-20.6705
-27.9975
-24.1511
-12.0966
4.02151
19.9259
32.1492
38.6579
39.0512
34.3485
26.4863
17.6988
9.95588
4.58633
2.13767
2.45377
4.89532
8.60999
12.7687
16.7174
20.0334
22.5048
24.0718
24.7663
24.6729
23.9198
22.6891
21.2307
19.8631
18.9502
18.8569
19.8887
22.2319
25.909
30.759
36.4517
42.5331
48.4959
53.8636
58.2713
61.529
63.6499
64.8378
65.4305
65.8094
66.2944
67.0485
68.0183
68.9294
69.3437
68.7692
66.7973
63.2324
58.1778
52.0504
45.5146
39.347
34.2638
30.7542
28.9638
28.6603
29.2916
30.1234
30.421
29.6276
27.4945
24.1288
19.9506
15.5727
11.6379
8.65861
6.9014
6.34387
6.71168
7.58012
8.5082
9.16585
9.41913
9.35207
9.22282
9.37062
10.1029
11.5953
13.8328
16.6053
19.5562
22.268
24.3597
25.5705
25.8115
25.1755
23.909
22.3573
20.9002
19.8903
19.6058
20.2204
21.7912
24.259
27.4608
31.1514
35.0347
38.8021
42.176
44.9517
47.0281
48.4204
49.2518
49.7241
50.0779
50.5515
51.351
52.6355
54.5156
57.0551
60.2659
64.0885
68.3601
72.7854
76.9318
80.2698
82.2668
82.5238
80.9181
77.703
73.5129
69.2453
65.8281
63.9251
63.6716
64.5384
65.4054
64.8635
61.6934
55.3919
46.578
37.1148
29.8491
27.9756
34.1548
49.6107
73.4748
102.604
131.99
155.711
168.223
165.684
146.939
113.922
71.3269
25.6303
-16.3035
-48.6721
-67.8848
-73.1394
-66.3158
-51.2609
-32.6959
-15.0545
-1.5518
6.31004
8.73317
7.19183
3.75968
0.419565
-1.45068
-1.30519
0.639519
3.68996
7.04545
10.1178
12.706
14.9947
17.407
20.3867
24.1978
28.8092
33.8976
38.9566
43.466
47.0615
49.6488
51.4302
52.8398
54.412
56.6262
59.7733
63.8791
68.7054
73.8205
78.7172
82.9437
86.2089
88.4368
89.7565
90.4345
90.7727
91.0032
91.2115
91.3121
91.0815
90.2387
88.5461
85.8986
82.3707
78.2052
73.7464
69.3369
65.2124
61.4287
57.847
54.1841
50.1149
45.3947
39.9635
33.9959
27.8805
22.1304
17.2518
13.6101
11.334
10.2873
10.1178
10.3655
10.5981
10.5294
10.0857
9.39985
8.73999
8.39683
8.57053
9.29451
10.4214
11.674
12.7424
13.3913
13.5405
13.2887
12.8735
12.581
12.6374
13.1205
13.9246
14.7914
15.3982
15.4755
14.9129
13.8181
12.5063
11.4207
11.0069
11.5786
13.2155
15.7251
18.6802
21.5238
23.7113
24.8524
24.8152
23.7646
22.1272
20.4936
19.4832
19.6059
21.1542
24.1502
28.3564
33.346
38.6107
43.679
48.2127
52.0578
55.2373
57.8899
60.1741
62.1701
63.8138
64.8913
65.1042
64.192
62.0777
58.9822
55.4575
52.3043
50.3727
50.2885
52.1817
55.5138
59.0874
61.2816
60.4883
55.6548
46.7826
35.2155
23.5855
15.3644
14.0827
22.3855
41.1679
69.0424
102.327
135.616
162.834
178.549
179.208
163.993
135.061
97.1013
56.3089
19.0468
-9.48129
-26.2199
-30.6939
-24.8183
-12.1861
2.94198
16.6658
26.2388
30.4627
29.6489
25.2254
19.1541
13.3403
9.18858
7.38982
7.9416
10.3421
13.8612
17.7947
21.635
25.1349
28.2776
31.1901
34.045
36.9824
40.0676
43.285
46.5552
49.7623
52.7827
55.5104
57.8796
59.8852
61.5966
63.1599
64.7811
66.6863
69.0635
71.9986
75.4244
79.1
82.6337
85.5491
87.3804
87.7737
86.5677
83.8305
79.8431
75.0336
69.8806
64.8103
60.1155
55.9134
52.1498
48.6452
45.1665
41.5049
37.5408
33.2819
28.868
24.5431
20.6018
17.3226
14.9004
13.3939
12.6999
12.5629
12.622
12.4891
11.842
10.5107
8.53285
6.16098
3.81167
1.96713
1.05121
1.31335
2.75394
5.11495
7.94153
10.6991
12.9136
14.2934
14.7979
14.6323
14.1717
13.8381
13.971
14.7293
16.0554
17.7085
19.3534
20.6725
21.4648
21.6993
21.5087
21.1309
20.8199
20.7609
21.0176
21.5283
22.1488
22.7238
23.1583
23.4613
23.7473
24.1918
24.96
26.1309
27.6461
29.301
30.7847
31.7585
31.9523
31.2513
29.749
27.7519
25.729
24.2183
23.7061
24.5075
26.6744
29.9572
33.8357
37.6223
40.621
42.3083
42.4887
41.3739
39.5454
37.793
36.855
37.1292
38.4486
40.0131
40.5387
38.6218
33.2423
24.2672
12.7842
1.11927
-7.53523
-9.84015
-3.22287
13.2573
38.352
68.5775
98.7547
123.05
136.277
135.138
119.063
90.4239
54.041
16.1094
-17.1854
-41.0041
-52.8074
-52.7065
-43.158
-28.1315
-12.0064
1.4936
10.0588
13.0868
11.4973
7.18709
2.32757
-1.27626
-2.59801
-1.49631
1.45948
5.33953
9.23884
12.5689
15.1766
17.2809
19.2781
21.5062
24.0622
26.7388
29.0997
30.663
31.1225
30.5233
29.3246
28.3155
28.3997
30.3098
34.3362
40.1598
46.8474
53.0252
57.1924
58.0928
55.0423
48.1218
38.1797
26.6418
15.1838
5.35318
-1.75574
-5.69428
-6.67838
-5.44608
-3.00804
-0.36992
1.69663
2.78137
2.8453
2.13297
1.03191
-0.0695849
-0.885684
-1.27776
-1.24464
-0.878609
-0.31341
0.315346
0.888578
1.30511
1.47798
1.33823
0.852398
0.0502761
-0.948627
-1.92513
-2.57875
-2.57734
-1.63011
0.434037
3.6046
7.66405
12.2097
16.7217
20.6624
23.5846
25.2228
25.5442
24.7487
23.2181
21.4274
19.8413
18.819
18.5513
19.0396
20.1209
21.5265
22.9592
24.1666
24.9936
25.4035
25.4647
25.3112
25.0892
24.9069
24.7994
24.7197
24.5562
24.1714
23.45
22.3444
20.902
19.2673
17.6568
16.3088
15.4239
15.1076
15.3353
15.9496
16.6968
17.2962
17.5289
17.32
16.7915
16.2613
16.1811
17.0199
19.1172
22.5482
27.0415
31.9883
36.5539
39.8757
41.3003
40.5904
38.0302
34.3791
30.6649
27.8607
26.5371
26.6038
27.2486
27.1281
24.7931
19.2461
10.4643
-0.291936
-10.5317
-16.9956
-16.4565
-6.66821
12.7997
40.103
71.2222
100.656
122.579
132.185
126.879
106.977
75.7293
38.6314
2.1923
-27.5215
-46.1969
-52.1126
-46.3129
-32.1118
-14.0972
3.07257
15.7552
22.0297
21.8818
16.8859
9.53428
2.4368
-2.37523
-3.87408
-2.11932
1.96271
6.98844
11.5673
14.6601
15.7645
14.914
12.5329
9.22608
5.58197
2.04677
-1.11074
-3.75897
-5.82648
-7.23139
-7.84869
-7.52517
-6.13042
-3.6177
-0.0664091
4.31307
9.21614
14.3099
19.3053
24.0114
28.3538
32.3534
36.0748
39.5653
42.8049
45.6873
48.0381
49.6642
50.417
50.25
49.2482
47.6211
45.6579
43.6586
41.861
40.3862
39.2175
38.2211
37.2006
35.9712
34.4283
32.592
30.6114
28.7262
27.1963
26.2186
25.8543
25.9918
26.355
26.5607
26.2107
24.9961
22.7868
19.6805
15.9981
12.2225
8.89505
6.49513
5.33045
5.46709
6.71607
8.68015
10.8499
12.7253
13.9341
14.3172
13.963
13.1806
12.4214
12.1664
12.8075
14.5502
17.3605
20.967
24.9185
28.6804
31.7495
33.7587
34.5478
34.1848
32.9342
31.1801
29.3259
27.6952
26.4585
25.6058
24.9703
24.2966
23.3344
21.9313
20.0994
18.0348
16.0862
14.6781
14.2122
14.9719
17.0587
20.3746
24.6552
29.539
34.65
39.666
44.352
48.5523
52.1508
55.0238
57.0133
57.9418
57.6739
56.2049
53.7414
50.7285
47.7918
45.5888
44.5999
44.9247
46.1645
47.4598
47.7138
45.9692
41.8421
35.8763
29.6729
25.6992
26.7652
35.2635
52.3604
77.3758
107.564
138.424
164.52
180.647
183.062
170.456
144.392
109.069
70.4441
34.9342
8.01161
-6.94285
-9.24943
-0.870325
14.2685
31.3633
45.92
54.7354
56.4429
51.537
41.9362
30.2641
19.0809
10.2779
4.77011
2.51635
2.79652
4.61392
7.0765
9.64493
12.1979
14.9324
18.167
22.1356
26.8475
32.0526
37.3105
42.1248
46.0876
48.9852
50.8341
51.8446
52.3351
52.6315
52.9864
53.5418
54.3384
55.3599
56.5873
58.0402
59.7859
61.9128
64.4783
67.4496
70.6605
73.8041
76.4678
78.2075
78.6433
77.5535
74.94
71.0477
66.3277
61.3522
56.698
52.8273
49.9927
48.1921
47.1814
46.5447
45.8008
44.5215
42.4301
39.458
35.7457
31.5941
27.3803
23.4656
20.1199
17.4812
15.5586
14.2695
13.4951
13.133
13.1283
13.4745
14.1875
15.2654
16.6508
18.2135
19.7595
21.0659
21.9294
22.2128
21.8723
20.9597
19.5973
17.9365
16.1142
14.2195
12.2814
10.2761
8.14974
5.84458
3.32078
0.566712
-2.40112
-5.54417
-8.80775
-12.1225
-15.4013
-18.5362
-21.4002
-23.8601
-25.7973
-27.1329
-27.846
-27.9767
-27.6101
-26.8466
-25.7699
-24.4288
-22.8451
-21.0487
-19.1281
-17.2735
-15.7855
-15.0318
-15.3519
-16.9349
-19.712
-23.3134
-27.1242
-30.4444
-32.7151
-33.7414
-33.8227
-33.7187
-34.423
-36.7831
-41.0684
-46.6323
-51.8085
-54.1323
-50.8859
-39.8582
-20.1246
7.38616
39.7396
72.3595
99.8722
117.252
120.989
109.971
85.8422
52.7195
16.3269
-17.2375
-42.7957
-57.1245
-59.486
-51.5518
-36.7794
-19.4369
-3.54718
7.98099
13.841
14.3629
11.1457
6.43681
2.45318
0.824398
2.27967
6.6168
12.9121
19.8745
26.2285
31.023
33.8047
34.6385
34.0024
32.6066
31.1963
30.3869
30.5619
31.8428
34.1213
37.1342
40.5558
44.0857
47.5139
50.754
53.8394
56.8897
60.0535
63.444
67.0822
70.8619
74.5468
77.803
80.26
81.5876
81.5707
80.1613
77.4953
73.8678
69.6722
65.3177
61.146
57.368
54.0343
51.0475
48.2083
45.2823
42.0693
38.4562
34.4439
30.1455
25.761
21.5405
17.7474
14.6298
12.4013
11.2292
11.2229
12.4182
14.7554
18.0596
22.0305
26.2541
30.2425
33.5014
35.6126
36.3152
35.5636
33.545
30.6489
27.3925
24.3199
21.8973
20.4291
20.0143
20.549
21.7711
23.3311
24.8685
26.0765
26.74
26.7466
26.0739
24.7668
22.9146
20.6368
18.0788
15.4137
12.84
10.5699
8.80358
7.69294
7.30609
7.60438
8.44421
9.60889
10.866
12.0367
13.0564
14.0063
15.1017
16.6335
18.876
21.9833
25.9054
30.3511
34.8141
38.6609
41.2611
42.1276
41.0267
38.0286
33.4837
27.9328
21.9812
16.1768
10.9305
6.50292
3.05174
0.711819
-0.339404
0.123792
2.29686
6.19387
11.4747
17.3287
22.4936
25.4594
24.8488
19.8952
10.8847
-0.594994
-11.7301
-18.9327
-18.6155
-8.12242
13.4216
44.5956
81.6874
119.281
151.325
172.45
179.202
170.879
149.737
120.509
89.3426
62.4254
44.6426
38.5918
44.1758
58.8365
78.3259
97.7826
112.827
120.417
119.285
109.927
94.2071
74.7341
54.2089
34.8882
18.2691
5.01196
-4.9403
-12.1294
-17.3211
-21.2857
-24.6526
-27.8443
-31.0691
-34.3481
-37.5544
-40.4523
-42.7367
-44.0756
-44.1591
-42.7531
-39.7496
-35.2025
-29.3384
-22.5361
-15.2749
-8.06101
-1.34413
4.5588
9.51792
13.6109
17.1037
20.393
23.9192
28.0651
33.0627
38.9258
45.4298
52.1438
58.5122
63.9696
68.0607
70.5357
71.3962
70.876
69.3654
67.2969
65.0276
62.7534
60.4805
58.0633
55.295
52.0201
48.23
44.1057
39.9882
36.2839
33.3303
31.2688
29.9689
29.0361
27.9105
26.0335
23.0346
18.8815
13.9408
8.92346
4.72074
2.17101
1.82163
3.75449
7.52898
12.2637
16.8393
20.1698
21.469
20.4417
17.3479
12.9257
8.1994
4.22577
1.85035
1.53528
3.29801
6.76561
11.3169
16.263
21.0102
25.164
28.5506
31.1671
33.0866
34.3603
34.952
34.7278
33.5016
31.118
27.5419
22.9218
17.605
12.0959
6.96837
2.75765
-0.139766
-1.52896
-1.42697
-0.0202488
2.41526
5.60487
9.34732
13.5455
18.1866
23.2817
28.7879
34.5479
40.2748
45.5988
50.1648
53.7508
56.3596
58.2373
59.7952
61.4433
63.3849
65.4508
67.0539
67.3201
65.3945
60.8561
54.1136
46.6315
40.8593
39.8092
46.3347
62.2708
87.6692
120.374
156.115
189.168
213.471
223.953
217.731
194.869
158.477
114.103
68.5622
28.4885
-1.02671
-17.38
-20.7745
-13.8731
-0.921783
13.3946
25.0559
31.5032
31.9697
27.3296
19.5744
11.1096
4.08008
-0.10628
-0.97344
1.10675
5.19779
10.1653
15.0128
19.106
22.2514
24.644
26.7276
29.0236
31.9765
35.848
40.6706
46.2543
52.2346
58.1455
63.5023
67.8846
71.0074
72.7714
73.2825
72.8356
71.8596
70.8342
70.1917
70.2267
71.0354
72.4996
74.3213
76.0995
77.4296
77.9996
77.6581
76.4364
74.5229
72.1968
69.7446
67.3826
65.208
63.1904
61.2027
59.079
56.6782
53.9337
50.8738
47.6074
44.2837
41.0394
37.9529
35.0188
32.1533
29.2248
26.1032
22.7112
19.0634
15.2854
11.6053
8.32419
5.76935
4.24138
3.96283
5.03661
7.4197
10.917
15.1977
19.8357
24.3692
28.3734
31.5321
33.6927
34.8885
35.3203
35.2944
35.1309
35.0642
35.1625
35.2926
35.145
34.3172
32.437
29.2922
24.9299
19.6924
14.1755
9.11262
5.21433
3.00277
2.68615
4.10758
6.78265
10.0161
13.0662
15.312
16.3815
16.2074
15.0021
13.1654
11.1565
9.36949
8.05013
7.27157
6.97115
7.02734
7.3451
7.91635
8.83226
10.2424
12.2757
14.9537
18.1314
21.494
24.6189
27.0884
28.6191
29.1594
28.9142
28.275
27.6667
27.3556
27.2883
27.0335
25.8781
23.0816
18.2383
11.6413
4.52122
-0.960263
-2.02541
4.11803
19.5058
44.6689
78.1287
116.322
154.044
185.372
204.878
208.856
196.259
169.073
132.026
91.6532
54.954
27.9373
14.4226
15.3713
28.8944
50.9032
76.2095
99.7806
117.829
128.488
131.945
130.054
125.592
121.373
119.482
120.805
124.936
130.452
135.426
138.019
136.984
131.955
123.473
112.78
101.462
91.0466
82.6863
76.9763
73.9468
73.1952
74.0958
76.0111
78.4409
81.0711
83.7291
86.2763
88.4942
90.015
90.3278
88.8679
85.1592
78.9671
70.4088
59.9843
48.512
36.9855
26.3864
17.5048
10.8103
6.40417
4.05677
3.31215
3.62558
4.495
5.55461
6.61336
7.63927
8.70529
9.92025
11.3683
13.0726
14.9885
17.0213
19.0549
20.9795
22.7067
24.1689
25.3062
26.0492
26.3082
25.9745
24.9384
23.1182
20.4923
17.1245
13.1723
8.87604
4.52797
0.430344
-3.14922
-6.01552
-8.07115
-9.32848
-9.91058
-10.0445
-10.0475
-10.3027
-11.2178
-13.1626
-16.3872
-20.9371
-26.5928
-32.8663
-39.0824
-44.5489
-48.7862
-51.7573
-54.013
-56.6776
-61.2321
-69.1128
-81.2145
-97.4338
-116.411
-135.584
-151.603
-161.026
-161.142
-150.699
-130.321
-102.483
-71.0275
-40.3325
-14.3568
4.18652
14.3129
16.7907
13.7293
7.87403
1.82808
-2.57419
-4.58095
-4.46865
-3.1825
-1.82293
-1.16516
-1.37306
-1.9922
-2.20764
-1.26008
1.13993
4.56157
7.87624
9.57272
8.28431
3.36818
-4.6563
-13.9777
-21.7582
-24.7665
-20.2352
-6.71598
15.3147
43.2964
72.9565
99.1554
117.012
123.03
115.94
97.0336
69.9072
39.6859
11.9232
-8.54192
-18.4972
-16.8397
-4.55576
15.7432
40.564
66.3397
90.0998
109.869
124.748
134.73
140.356
142.343
141.3
137.592
131.362
122.668
111.668
98.7737
84.7265
70.5632
57.488
46.6811
39.0932
35.2738
35.2702
38.6147
44.4023
51.4392
58.434
64.1988
67.8267
68.8182
67.1409
63.2139
57.8215
51.9713
46.7167
42.9714
41.3459
42.0331
44.764
48.8462
53.2811
56.9424
58.785
58.0432
54.3788
47.9468
39.3638
29.5855
19.7209
10.8235
3.70659
-1.17958
-3.78589
-4.41766
-3.62282
-2.04801
-0.299875
1.15857
2.05982
2.33186
2.05933
1.42582
0.656602
-0.0255463
-0.427913
-0.402925
0.14181
1.23278
2.81886
4.7642
6.85477
8.82605
10.4131
11.415
11.7579
11.5356
11.0104
10.5663
10.6203
11.5102
13.3904
16.1651
19.4822
22.7958
25.4854
27.0047
27.0199
25.5022
22.747
19.3128
15.8939
13.159
11.5967
11.4085
12.474
14.3977
16.6207
18.5691
19.7971
20.0914
19.5115
18.3599
17.0949
16.2089
16.1046
16.9957
18.8505
21.3867
24.1136
26.4124
27.6417
27.2531
24.9039
20.5492
14.4939
7.3849
0.128107
-6.27469
-10.9492
-13.3903
-13.6581
-12.457
-11.0415
-10.9316
-13.474
-19.348
-28.1522
-38.2176
-46.755
-50.3622
-45.8166
-30.9777
-5.56453
28.425
66.818
103.929
133.668
150.846
152.359
137.952
110.338
74.6482
37.3242
4.7306
-18.1648
-28.7305
-27.0195
-15.4802
1.85246
20.4406
36.3094
46.8364
51.1031
49.7834
44.6668
37.9955
31.8196
27.5332
25.6792
26.0227
27.8149
30.1348
32.1956
33.5353
34.0644
33.9893
33.6656
33.444
33.5601
34.0933
34.9939
36.1525
37.4779
38.9516
40.6412
42.6714
45.1682
48.1985
51.7291
55.6175
59.6354
63.5124
66.9791
69.7914
71.7291
72.575
72.0967
70.0558
66.2625
60.6718
53.4929
45.2629
36.8318
29.2262
23.3965
19.9023
18.6291
18.6416
18.2555
15.3514
7.87672
-5.58741
-25.3557
-50.4127
-78.5171
-106.63
-131.562
-150.661
-162.361
-166.447
-163.965
-156.847
-147.353
-137.518
-128.743
-121.623
-116.022
-111.325
-106.759
-101.672
-95.6955
-88.7648
-81.0343
-72.7463
-64.1186
-55.2933
-46.3519
-37.3754
-28.505
-19.9685
-12.0547
-5.04205
0.886766
5.71014
9.58173
12.7846
15.6377
18.385
21.1053
23.6715
25.7756
27.0125
26.9985
25.4915
22.4808
18.2222
13.2122
8.10853
3.61759
0.373858
-1.16415
-0.783656
1.45556
5.23729
10.0413
15.2217
20.0991
24.0557
26.6214
27.5404
26.8101
24.6822
21.6258
18.252
15.2117
13.0823
12.2643
12.9087
14.8903
17.8358
21.2
24.3761
26.8174
28.1442
28.2146
27.1461
25.2849
23.1321
21.2435
20.1249
20.1434
21.469
24.0558
27.6602
31.8896
36.2691
40.3132
43.5914
45.7794
46.6932
46.3031
44.7293
42.2187
39.1061
35.7605
32.5233
29.6468
27.2462
25.2775
23.5524
21.7931
19.7173
17.1366
14.0388
10.6293
7.31433
4.62435
3.09643
3.14985
4.99292
8.59098
13.7045
19.9803
27.0554
34.6277
42.4562
50.283
57.7099
64.0887
68.5025
69.8906
67.3292
60.4142
49.6353
36.6037
24.006
15.2231
13.6472
21.8328
40.6945
68.9867
103.248
138.286
168.141
187.307
191.936
180.713
155.176
119.397
79.0882
40.3816
8.56153
-12.9293
-22.9956
-22.8222
-15.3035
-4.15967
7.00965
15.4947
19.9049
20.2044
17.4113
13.0951
8.84158
5.82887
4.60588
5.0893
6.7334
8.788
10.5539
11.5653
11.6661
10.9831
9.82833
8.57491
7.54467
6.93504
6.79302
7.03091
7.46988
7.89646
8.11921
8.01748
7.57693
6.90831
6.24603
5.9238
6.32694
7.82528
10.6957
15.0484
20.7739
27.5245
34.7406
41.7211
47.7289
52.1118
54.4157
54.4654
52.3957
48.624
43.7683
38.5294
33.5605
29.354
26.1701
24.0218
22.7169
21.9439
21.3767
20.7699
20.0205
19.1796
18.4156
17.9428
17.9389
18.4781
19.4985
20.8149
22.17
23.3068
24.04
24.3041
24.1646
23.791
23.4004
23.191
23.285
23.6974
24.3373
25.0412
25.6244
25.9374
25.9087
25.5647
25.0199
24.443
24.0072
23.8383
23.9759
24.3563
24.8244
25.1713
25.1902
24.7367
23.7774
22.4139
20.8726
19.4606
18.4959
18.2284
18.7722
20.0666
21.881
23.8623
25.6191
26.818
27.2718
26.9912
26.1866
25.2143
24.4813
24.3299
24.9376
26.2606
28.0424
29.8916
31.4079
32.3219
32.6006
32.4769
32.3789
32.7678
33.9259
35.7661
37.7394
38.9023
38.1613
34.6531
28.1615
19.4363
10.2813
3.32785
1.49347
7.22654
21.723
44.3403
72.4083
101.549
126.479
142.135
144.844
133.249
108.716
75.1233
38.0443
3.54695
-23.1023
-38.5003
-41.6833
-34.1028
-19.0496
-0.714262
16.8473
30.5752
38.9022
41.812
40.5115
36.8665
32.7886
29.743
28.4854
29.0486
30.9299
33.3793
35.6858
37.3786
38.3076
38.6096
38.5994
38.6365
39.0129
39.8865
41.2671
43.0427
45.0286
47.0212
48.8455
50.3876
51.614
52.5735
53.3847
54.2082
55.2057
56.4946
58.1062
59.9603
61.8659
63.5498
64.7102
65.0808
64.4884
62.8893
60.3738
57.1371
53.4275
49.4865
45.4981
41.5614
37.6928
33.8556
30.0056
26.1404
22.3364
18.7627
15.6686
13.3444
12.0655
12.0294
13.3009
15.7767
19.1795
23.0864
26.9894
30.3786
32.8333
34.1017
34.1499
33.1676
31.5255
29.6912
28.1233
27.1676
26.983
27.5155
28.5268
29.6699
30.5887
31.0137
30.827
30.078
28.9494
27.6863
26.5144
25.5733
24.8886
24.3871
23.9485
23.4719
22.93
22.3891
21.9877
21.8788
22.1606
22.8194
23.7131
24.6012
25.2181
25.3629
24.9766
24.175
23.2235
22.4579
22.1742
22.5249
23.4579
24.7221
25.943
26.7471
26.8961
26.3865
25.4762
24.6246
24.3549
25.0778
26.9296
29.6773
32.7297
35.2635
36.4377
35.6409
32.6995
27.9779
22.3263
16.8745
12.7168
10.5726
10.5275
11.9492
13.6298
14.1435
12.3372
7.81724
1.2753
-5.478
-9.83081
-8.99998
-0.832403
15.434
38.6766
65.8384
92.3893
113.227
123.819
121.295
105.213
77.7742
43.4167
7.87958
-23.0388
-44.7134
-54.6126
-52.6909
-41.1809
-23.8756
-5.11294
11.258
22.6697
28.2149
28.5633
25.4959
21.2305
17.7459
16.2846
17.1451
19.7755
23.0968
25.9321
27.3999
27.1672
25.5054
23.1606
21.098
20.208
21.0606
23.771
27.9999
33.074
38.182
42.5859
45.7937
47.6509
48.3385
48.2853
48.026
48.0466
48.6569
49.9223
51.6675
53.547
55.1579
56.1608
56.3733
55.8084
54.6486
53.1641
51.6035
50.0929
48.579
46.8373
44.5472
41.4104
37.2772
32.2362
26.6353
21.0224
16.0171
12.1529
9.73416
8.75314
8.89298
9.61553
10.3082
10.4457
9.71992
8.10235
5.82553
3.2955
0.965855
-0.787003
-1.7528
-1.92033
-1.45344
-0.625418
0.263341
0.959713
1.30687
1.26159
0.883556
0.306111
-0.300881
-0.768425
-0.961832
-0.808406
-0.317389
0.411678
1.19756
1.80736
2.00798
1.63188
0.64232
-0.82088
-2.4332
-3.72508
-4.16699
-3.28369
-0.770622
3.418
9.03475
15.5704
22.3467
28.6488
33.8668
37.6118
39.7797
40.5508
40.3271
39.6275
38.9673
38.7511
39.2046
40.3555
42.065
44.095
46.1897
48.147
49.8599
51.3153
52.5543
53.6087
54.4397
54.9051
54.7762
53.8089
51.8519
48.9563
45.4422
41.8801
38.9697
37.3316
37.2664
38.5606
40.4253
41.6248
40.7994
36.9216
29.7611
20.2063
10.3047
2.94862
1.23269
7.6171
23.1129
46.7305
75.3865
104.355
128.199
141.976
142.422
128.796
103.148
69.9304
35.024
4.43322
-17.0261
-26.7153
-24.6026
-13.0548
3.91967
21.7475
36.3932
45.2085
47.3448
43.6727
36.2942
27.8232
20.6532
16.4005
15.6392
17.9485
22.2058
27.0069
31.0793
33.5818
34.2352
33.281
31.316
29.0694
27.1936
26.1203
26.0052
26.7578
28.1305
29.8309
31.6239
33.3962
35.173
37.0863
39.3113
41.9892
45.1604
48.7248
52.4419
55.9687
58.9271
60.9818
61.9087
61.6362
60.2482
57.9502
55.0091
51.6838
48.1686
44.563
40.876
37.0617
33.0714
28.9061
24.6504
20.4762
16.6154
13.3082
10.7423
9.00144
8.03796
7.67863
7.66229
7.70049
7.54571
7.05035
6.20224
5.12841
4.06659
3.31105
3.14506
3.77434
5.27561
7.57102
10.4338
13.5247
16.4527
18.8481
20.4337
21.0786
20.8224
19.8632
18.5107
17.1133
15.9778
15.2995
15.1227
15.342
15.7454
16.0872
16.1715
15.9211
15.4117
14.8591
14.5631
14.8221
15.8433
17.6738
20.1734
23.0369
25.8596
28.2291
29.8172
30.4496
30.1348
29.0489
27.4819
25.7625
24.1823
22.9372
22.1002
21.6273
21.3922
21.2364
21.0202
20.6599
20.1427
19.5168
18.8619
18.2515
17.7211
17.2535
16.7905
16.2668
15.6585
15.0267
14.5382
14.4464
15.0288
16.4901
18.8563
21.8951
25.0971
27.7419
29.0499
28.3926
25.5081
20.6551
14.6425
8.69939
4.19338
2.2558
3.41296
7.34092
12.8431
18.0976
21.1449
20.5045
15.7501
7.86028
-0.802733
-6.9357
-7.09262
1.34616
19.2916
45.4131
76.1451
106.286
130.084
142.544
140.649
124.138
95.6581
60.2078
24.0295
-6.78307
-27.6008
-36.174
-32.9364
-20.6578
-3.5758
13.7327
27.4363
35.2215
36.5939
32.6925
25.7279
18.2443
12.4219
9.59584
10.0808
13.2949
18.0944
23.1903
27.5178
30.4662
31.9363
32.2433
31.9286
31.5511
31.5248
32.0386
33.0649
34.4337
35.9367
37.4213
38.8461
40.2854
41.8878
43.8062
46.1229
48.795
51.6351
54.3338
56.5207
57.8468
58.0694
57.1172
55.1176
52.3767
49.3144
46.3677
43.8849
42.0373
40.7724
39.823
38.7746
37.1752
34.6629
31.0781
26.5298
21.3968
16.2604
11.7828
8.56124
6.99249
7.18399
8.93184
11.7719
15.09
18.2626
20.7927
22.4077
23.0975
23.0855
22.7462
22.4906
22.6524
23.4024
24.7109
26.3641
28.0266
29.332
29.9759
29.7897
28.7772
27.1088
25.0773
23.0286
21.2865
20.0896
19.5544
19.6703
20.3248
21.3488
22.5679
23.8456
25.1074
26.3408
27.5744
28.8427
30.15
31.4445
32.6108
33.4852
33.8916
33.6876
32.8127
31.3228
29.4035
27.3549
25.5481
24.3606
24.1001
24.9343
26.8401
29.586
32.756
35.813
38.1942
39.4196
39.1934
37.474
34.4963
30.7372
26.8286
23.4348
21.1206
20.2395
20.8685
22.8055
25.6295
28.8095
31.8327
34.3196
36.094
37.1917
37.8035
38.1745
38.4897
38.7859
38.9237
38.6319
37.6185
35.7123
32.9858
29.8074
26.7884
24.6193
23.8342
24.5729
26.4267
28.4477
29.3559
27.9205
23.4279
16.0974
7.29729
-0.553685
-4.43244
-1.43914
10.361
31.208
59.2557
90.6764
120.292
142.622
153.103
149.174
130.946
101.258
65.0902
28.4779
-2.8013
-24.4404
-34.4153
-33.2153
-23.4709
-9.11774
5.65613
17.3923
24.0367
25.174
21.8243
15.9187
9.64102
4.83102
2.5938
3.17925
6.10832
10.4586
15.1951
19.4448
22.6548
24.6211
25.4219
25.3043
24.5776
23.5441
22.4744
21.6125
21.188
21.4135
22.459
24.4126
27.2409
30.7742
34.725
38.7436
42.4961
45.7432
48.3947
50.5219
52.3225
54.0452
55.8962
57.953
60.1136
62.0952
63.4881
63.852
62.8298
60.2501
56.19
50.9798
45.1463
39.3093
34.0551
29.8206
26.8154
25.0002
24.1241
23.8068
23.6422
23.295
22.5675
21.4231
19.9677
18.3999
16.9483
15.8128
15.1231
14.9202
15.1581
15.7203
16.4447
17.1518
17.6747
17.888
17.7352
17.2481
16.5516
15.8495
15.3852
15.3859
16.0002
17.2468
18.9937
20.9765
22.8567
24.3062
25.0934
25.1466
24.5724
23.6229
22.6223
21.8736
21.5771
21.7855
22.4081
23.2604
24.1393
24.8947
25.471
25.9051
26.2814
26.6641
27.0355
27.2679
27.145
26.4319
24.9711
22.7734
20.0672
17.2847
14.9794
13.6942
13.8153
15.4555
18.4032
22.1556
26.0311
29.3322
31.5149
32.318
31.8174
30.3907
28.6037
27.0514
26.1978
26.2605
27.1685
28.6041
30.1135
31.2527
31.7259
31.4785
30.7176
29.8557
29.3945
29.778
31.2556
33.791
37.0422
40.4194
43.2141
44.7692
44.6561
42.8135
39.6098
35.8022
32.3846
30.3454
30.3811
32.6379
36.5589
40.9057
43.9878
44.0781
39.935
31.2987
19.2088
6.01412
-4.99086
-10.2682
-6.93684
6.35036
28.7991
57.3404
87.0653
112.172
127.227
128.426
114.545
87.3095
51.0754
11.8941
-23.8132
-50.6357
-65.2635
-67.0364
-57.8433
-41.4443
-22.4298
-5.10819
7.39704
13.6429
13.8891
9.71184
3.37412
-2.84639
-7.19271
-8.71835
-7.31093
-3.50651
1.80297
7.66146
13.2607
18.0392
21.6812
24.0578
25.159
25.0517
23.8756
21.8633
19.3587
16.8075
14.7077
13.5256
13.6
15.0647
17.815
21.532
25.7574
29.9993
33.8368
36.9961
39.3791
41.0413
42.1321
42.8194
43.223
43.3766
43.226
42.6591
41.5554
39.8367
37.5042
34.6536
31.4654
28.1787
25.0555
22.3452
20.2552
18.9293
18.4356
18.761
19.8138
21.4348
23.4172
25.5357
27.5782
29.376
30.8219
31.8716
32.527
32.8078
32.7221
32.248
31.337
29.9404
28.0501
25.7409
23.1937
20.6887
18.5624
17.1382
16.6485
17.1722
18.6071
20.6881
23.0474
25.2998
27.1298
28.3572
28.9637
29.0778
28.9251
28.7618
28.8091
29.2054
29.9844
31.0774
32.3346
33.5565
34.5277
35.0489
34.9664
34.1992
32.7609
30.7729
28.4628
26.1399
24.1484
22.8025
22.3153
22.7416
23.9507
25.6421
27.4064
28.8185
29.5414
29.4149
28.5024
27.083
25.5897
24.5082
24.2646
25.1298
27.1678
30.2365
34.0399
38.2097
42.3911
46.3064
49.7764
52.7012
55.0119
56.6206
57.3962
57.1857
55.8816
53.5154
50.3384
46.8482
43.7252
41.6754
41.2083
42.4127
44.8139
47.3868
48.7626
47.6121
43.1185
35.4069
25.7802
16.6418
11.0649
12.068
21.7601
40.5825
66.8796
96.965
125.726
147.66
158.106
154.357
136.367
106.844
70.6872
33.915
2.33908
-19.6683
-30.0139
-29.1379
-19.6555
-5.52063
9.03805
20.5166
26.8264
27.5369
23.6692
17.1594
10.1841
4.55139
1.30921
0.639532
2.01272
4.50778
7.17294
9.31353
10.6378
11.2477
11.5122
11.8874
12.7525
14.3079
16.553
19.3319
22.4134
25.5721
28.6444
31.5482
34.2752
36.8679
39.3983
41.9561
44.6451
47.5792
50.8667
54.5794
58.71
63.1309
67.5746
71.6488
74.8938
76.8717
77.2677
75.9725
73.1221
69.0788
64.3576
59.517
55.0457
51.2755
48.3434
46.2072
44.7027
43.6186
42.7621
41.9943
41.2313
40.4191
39.5009
38.3982
37.0168
35.2773
33.1565
30.7183
28.1168
25.5623
23.2604
21.342
19.8138
18.548
17.3223
15.8979
14.1117
11.9502
9.57857
7.31168
5.53578
4.60418
4.74082
5.98183
8.17166
11.0118
14.1425
17.2286
20.0211
22.3789
24.249
25.6227
26.4889
26.8086
26.5219
25.5835
24.0112
21.9229
19.5438
17.1722
15.1147
13.6082
12.7577
12.5117
12.6874
13.037
13.3366
13.4655
13.451
13.4633
13.763
14.6178
16.2179
18.6138
21.6963
25.2185
28.8498
32.2424
35.0906
37.1725
38.3714
38.6827
38.2153
37.1878
35.9131
34.7596
34.0785
34.0991
34.8158
35.9075
36.7374
36.473
34.3273
29.8797
23.3885
15.9797
9.60982
6.74803
9.80644
20.4352
38.8691
63.5312
91.0566
116.797
135.738
143.616
137.975
118.859
88.9368
53.0077
16.9826
-13.4043
-33.8268
-42.2317
-39.1289
-27.2565
-10.7416
5.99665
19.3014
27.0217
28.7856
25.7841
20.1818
14.3613
10.2286
8.76207
9.89562
12.7199
15.8976
18.1416
18.6098
17.1148
14.115
10.5233
7.41239
5.71552
6.00512
8.39573
12.5762
17.9399
23.7612
29.366
34.2554
38.1636
41.0526
43.0599
44.4236
45.4083
46.2465
47.1045
48.0716
49.1671
50.3576
51.5758
52.7359
53.7417
54.4886
54.8615
54.7344
53.9765
52.4671
50.1211
46.9183
42.9301
38.333
33.4015
28.4772
23.9185
20.0414
17.0656
15.081
14.0432
13.7982
14.1287
14.8074
15.6401
16.4875
17.2606
17.897
18.3307
18.4712
18.2064
17.4298
16.0878
14.229
12.0357
9.82018
7.97834
6.90663
6.90171
8.06974
10.2729
13.1326
16.0933
18.5356
19.9101
19.8601
18.3007
15.4338
11.6976
7.66325
3.90744
0.893971
-1.10824
-2.05355
-2.09378
-1.512
-0.638243
0.228601
0.874637
1.19259
1.17411
0.883331
0.425016
-0.0826288
-0.525923
-0.806536
-0.850614
-0.62111
-0.133818
0.528288
1.21214
1.71289
1.818
1.37212
0.347321
-1.10418
-2.63777
-3.75958
-3.92411
-2.66669
0.264209
4.81603
10.6165
17.047
23.3914
29.0183
33.5389
36.8858
39.2763
41.0681
42.5501
43.7483
44.3302
43.6693
41.0802
36.1702
29.1978
21.3012
14.4787
11.2627
14.1254
24.7468
43.3478
68.2996
96.1701
122.259
141.534
149.759
144.528
125.929
96.6477
61.457
26.2085
-3.42368
-23.1378
-30.8436
-26.9553
-14.0939
3.69036
21.9484
36.8446
45.9072
48.3656
45.047
37.9173
29.4329
21.8907
16.9335
15.3036
16.8549
20.7683
25.8764
30.9955
35.1853
37.8957
38.995
38.7045
37.4784
35.8667
34.3922
33.4593
33.301
33.9662
35.341
37.1987
39.2665
41.2964
43.1257
44.7117
46.1328
47.5535
49.1616
51.0953
53.3796
55.8921
58.3683
60.4477
61.749
61.9568
60.8954
58.5731
55.1854
51.077
46.6723
42.3912
38.5698
35.4019
32.914
30.9762
29.3458
27.7314
25.8654
23.5675
20.7866
17.6141
14.2645
11.0285
8.20913
6.05511
4.70624
4.16393
4.294
4.86167
5.59084
6.23375
6.63371
6.7651
6.73976
6.777
7.14376
8.07941
9.72422
12.0707
14.9518
18.071
21.0686
23.6079
25.4601
26.563
27.0376
27.155
27.2599
27.6701
28.5796
29.9928
31.7114
33.3793
34.5779
34.9434
34.2757
32.6039
30.1887
27.4577
24.8917
22.8937
21.6812
21.2346
21.3188
21.5733
21.643
21.311
20.5894
19.7399
19.213
19.5214
21.0836
24.0796
28.363
33.4548
38.624
43.0374
45.9432
46.8459
45.6282
42.5927
38.407
33.9597
30.1536
27.6765
26.8036
27.2844
28.3569
28.9101
27.7808
24.1301
17.8118
9.62353
1.34339
-4.50919
-5.17909
1.63847
17.0875
40.607
69.7288
100.323
127.291
145.57
151.248
142.48
120.009
87.0992
48.9116
11.441
-19.721
-40.5013
-49.0763
-46.0611
-34.1433
-17.2895
0.252053
14.8924
24.369
28.0123
26.6013
21.9047
16.0695
11.0341
8.10797
7.79256
9.84157
13.4963
17.7975
21.8754
25.1463
27.3843
28.6799
29.3258
29.6795
30.0502
30.6354
31.5127
32.6729
34.0704
35.6675
37.4554
39.4486
41.6597
44.0689
46.6035
49.1383
51.5181
53.5962
55.2753
56.5355
57.4381
58.1015
58.654
59.1785
59.665
59.989
59.9251
59.196
57.5465
54.8238
51.041
46.4053
41.2991
36.2154
31.6608
28.0492
25.6123
24.3514
24.0419
24.2923
24.6429
24.6786
24.1278
22.9226
21.2037
19.2712
17.4945
16.2071
15.6132
15.7334
16.4008
17.3096
18.1015
18.4654
18.2247
17.388
16.1506
14.8472
13.8668
13.554
14.1199
15.5858
17.7732
20.3429
22.8719
24.9504
26.2742
26.7101
26.3188
25.3304
24.0804
22.9224
22.1416
21.8913
22.1671
22.8249
23.6344
24.351
24.7839
24.8399
24.5321
23.9528
23.2229
22.4372
21.6274
20.756
19.7452
18.5302
17.117
15.6207
14.2665
13.3464
13.1435
13.8436
15.467
17.8438
20.6463
23.4702
25.9421
27.8163
29.0282
29.6858
30.0011
30.1888
30.3704
30.525
30.5069
30.1269
29.2621
27.9439
26.3757
24.8561
23.6242
22.6826
21.6794
19.9267
16.5903
11.0295
3.19198
-6.07321
-14.9278
-20.7756
-20.8152
-12.8086
4.13372
28.9908
58.698
88.5476
113.081
127.278
127.753
113.63
86.8559
51.8456
14.5307
-18.9423
-43.5366
-56.338
-57.0165
-47.6525
-32.0173
-14.5328
0.797983
11.2192
15.6336
14.5516
9.66083
3.18915
-2.74115
-6.60048
-7.68701
-6.10291
-2.53605
2.04966
6.71228
10.7443
13.7693
15.7334
16.8274
17.3828
17.7758
18.3575
19.4115
21.1329
23.6189
26.8663
30.7757
35.164
39.7879
44.3762
48.6655
52.4318
55.513
57.8186
59.3287
60.0859
60.1838
59.754
58.9519
57.9393
56.8627
55.8317
54.9004
54.0605
53.2495
52.3756
51.3522
50.1316
48.7261
47.2076
45.6844
44.2634
43.0101
41.9237
40.9349
39.9323
38.8048
37.4876
35.9924
34.4106
32.8866
31.5699
30.5638
29.8898
29.4813
29.2102
28.9368
28.5663
28.0879
27.5836
27.1998
27.0902
27.3513
27.9713
28.8148
29.6504
30.2154
30.2987
29.8138
28.8388
27.6064
26.445
25.6858
25.5639
26.1433
27.2888
28.6946
29.9636
30.7123
30.673
29.7637
28.1056
25.9853
23.7747
21.8329
20.4186
19.6369
19.4335
19.6316
19.9981
20.3165
20.4431
20.335
20.0435
19.6818
19.3813
19.2509
19.3516
19.6913
20.235
20.9237
21.6941
22.4919
23.2789
24.0371
24.7722
25.5194
26.3479
27.3576
28.6611
30.3483
32.4379
34.8312
37.2878
39.4448
40.886
41.2568
40.393
38.4226
35.7935
33.1965
31.3832
30.9169
31.9284
33.9682
36.0306
36.7846
34.9839
29.9568
22.0296
12.7292
4.64834
0.945846
4.56413
17.3469
39.3009
68.2372
99.9466
128.927
149.523
157.218
149.733
127.656
94.4006
55.4958
17.3759
-14.0253
-34.5175
-42.4299
-38.7485
-26.6171
-10.3772
5.57283
17.7913
24.4338
25.4028
22.0326
16.4597
10.897
7.02254
5.63253
6.60771
9.14529
12.1396
14.5722
15.7957
15.6501
14.4115
12.6268
10.9071
9.75179
9.44663
10.0453
11.4157
13.3182
15.4831
17.6693
19.6989
21.4764
22.9998
24.3676
25.776
27.496
29.8212
32.9887
37.0874
41.9831
47.2893
52.406
56.6295
59.3107
60.0203
58.673
55.5666
51.3206
46.7246
42.539
39.3045
37.2185
36.1124
35.5375
34.9288
33.795
31.8757
29.2174
26.1491
23.1696
20.7876
19.3661
19.0216
19.6048
20.7651
22.0689
23.133
23.7251
23.8053
23.4978
23.0123
22.5452
22.1999
21.9528
21.6754
21.2021
20.4171
19.3264
18.0894
16.9945
16.3859
16.5636
17.686
19.7075
22.3702
25.2533
27.8674
29.7688
30.6619
30.4638
29.3157
27.54
25.5557
23.778
22.5246
21.9537
22.0443
22.6198
23.4047
24.0983
24.4444
24.2836
23.578
22.4082
20.9472
19.4223
18.0723
17.1112
16.6987
16.9212
17.7822
19.1994
21.0124
22.9998
24.9107
26.5069
27.6133
28.1654
28.2392
28.0515
27.9202
28.1884
29.1258
30.8338
33.1859
35.8299
38.2621
39.9636
40.5624
39.9691
38.4343
36.4924
34.7911
33.8484
33.8129
34.32
34.5192
33.3025
29.697
23.3185
14.7409
5.63117
-1.44564
-3.56058
1.80659
15.9494
38.3089
66.2518
95.3753
120.316
135.897
138.34
126.221
100.907
66.3512
28.26
-7.14002
-34.444
-50.1745
-53.3878
-45.6547
-30.4606
-12.2156
4.84258
17.5707
24.453
25.6595
22.6788
17.681
12.8204
9.67278
8.93663
10.4345
13.3606
16.6589
19.3995
21.0426
21.5323
21.2238
20.696
20.5277
21.1145
22.5747
24.7611
27.3554
30.0009
32.4252
34.5128
36.3114
37.9797
39.7022
41.6062
43.71
45.918
48.0616
49.9656
51.5158
52.7003
53.6091
54.3931
55.1947
56.077
56.9748
57.6877
57.9195
57.3519
55.7326
52.9497
49.0714
44.3393
39.1208
33.8347
28.8731
24.5408
21.025
18.3968
16.6351
15.6595
15.3563
15.5912
16.2086
17.0259
17.8355
18.4213
18.5938
18.2338
17.3322
16.0084
14.4962
13.0948
12.0962
11.7067
11.9867
12.8277
13.9766
15.1016
15.8839
16.1088
15.7307
14.8923
13.8924
13.1091
12.8985
13.497
14.9515
17.0972
19.589
21.9788
23.8189
24.7646
24.6526
23.5325
21.647
19.3661
17.0925
15.1656
13.7883
12.996
12.6742
12.6179
12.6138
12.5184
12.3099
12.0968
12.084
12.5061
13.5512
15.3001
17.6968
20.5578
23.6137
26.5643
29.1307
31.0883
32.2796
32.6148
32.0733
30.7173
28.7161
26.3676
24.0896
22.3598
21.5946
21.9873
23.3548
25.0588
26.0659
25.1744
21.3876
14.3444
4.67792
-5.84114
-14.4807
-18.0673
-13.7652
0.0644159
23.1655
53.0769
85.3585
114.361
134.398
141.036
132.193
108.72
74.3235
34.8014
-3.21109
-33.6758
-52.4069
-57.8423
-51.1601
-35.7518
-16.2273
2.76029
17.5597
26.1881
28.4968
25.8614
20.5424
14.9358
10.9281
9.51182
10.7199
13.8377
17.7824
21.5061
24.3044
25.9542
26.6758
26.9633
27.3629
28.2748
29.8395
31.9267
34.2134
36.3117
37.901
38.8215
39.1111
38.9809
38.7481
38.7485
39.2545
40.4162
42.2349
44.5679
47.1582
49.68
51.7908
53.1816
53.621
52.9876
51.2868
48.6501
45.3142
41.5826
37.7755
34.1754
30.9819
28.2839
26.0573
24.1889
22.5205
20.9015
19.2378
17.5211
15.834
14.3285
13.1845
12.5608
12.5506
13.1539
14.272
15.7232
17.2754
18.686
19.7412
20.2877
20.2531
19.6553
18.6
17.2683
15.8944
14.7347
14.0296
13.9646
14.6359
16.0313
18.0319
20.4366
23.0055
25.5107
27.7796
29.7171
31.2991
32.5414
33.4549
34.0066
34.1055
33.6226
32.443
30.5353
28.0109
25.1497
22.3731
20.1663
18.964
19.035
20.3983
22.8009
25.7677
28.7124
31.0796
32.4786
32.77
32.0847
30.7708
29.289
28.0884
27.498
27.6627
28.5337
29.9088
31.5049
33.0382
34.2925
35.1612
35.6613
35.9213
36.1477
36.578
37.4223
38.8021
40.6957
42.9068
45.0741
46.7327
47.4262
46.8457
44.9547
42.05
38.7197
35.6876
33.575
32.652
32.6722
32.8744
32.1904
29.6294
24.735
17.9633
10.8259
5.69821
5.28694
11.8706
26.5162
48.5153
75.2416
102.525
125.488
139.642
141.961
131.634
110.284
81.5853
50.3991
21.6471
-0.757216
-14.6542
-19.8891
-18.0516
-11.8257
-4.1695
2.43515
6.47609
7.55565
6.21081
3.52035
0.653125
-1.49978
-2.51867
-2.45524
-1.68342
-0.683148
0.156078
0.649729
0.82838
0.861052
0.936202
1.15248
1.46059
1.6749
1.54786
0.879813
-0.373127
-2.0284
-3.66729
-4.69236
-4.44049
-2.3257
2.0215
8.65039
17.2467
27.1606
37.5007
47.277
55.5617
61.6374
65.1034
65.9205
64.3889
61.0668
56.6489
51.8319
47.1936
43.1082
39.7121
36.922
34.4977
32.131
29.5416
26.5574
23.1632
19.5088
15.8785
12.6289
10.1123
8.60244
8.23893
9.00108
10.7155
13.0929
15.7845
18.4438
20.7817
22.602
23.8162
24.4343
24.541
24.2632
23.7393
23.095
22.4299
21.8136
21.2876
20.8704
20.5617
20.3447
20.1873
20.045
19.8665
19.6025
19.2176
18.7007
18.0719
17.3809
16.6984
16.0997
15.646
15.3675
15.254
15.255
15.2902
15.2685
15.1104
14.7688
14.2433
13.5839
12.8829
12.256
11.8159
11.6438
11.7651
12.1358
12.6444
13.1296
13.4143
13.3461
12.8382
11.8985
10.6378
9.25565
8.00285
7.13049
6.83685
7.22488
8.2805
9.87581
11.7949
13.7746
15.5503
16.897
17.6605
17.7764
17.2803
16.3092
15.0961
13.9527
13.2358
13.2928
14.3874
16.6177
19.8469
23.6727
27.4597
30.4454
31.9104
31.3773
28.7864
24.5865
19.6964
15.3176
12.6287
12.4309
14.8466
19.1765
23.988
27.4531
27.873
24.2642
16.8339
7.18241
-1.87483
-6.8755
-4.56384
7.17293
28.5372
57.456
89.7633
119.937
142.243
152.024
146.808
126.949
95.6226
58.1669
20.923
-10.1324
-30.6294
-38.6221
-34.8034
-22.1026
-4.80478
12.5506
26.2059
33.9087
35.1816
31.1311
23.9059
15.9918
9.54675
5.93682
5.55759
7.93342
12.0167
16.5692
20.5095
23.1422
24.2367
23.9691
22.7775
21.1908
19.6847
18.5942
18.09
18.2027
18.8714
19.994
21.4612
23.174
25.0447
26.9942
28.9502
30.8516
32.6566
34.3496
35.9414
37.4584
38.9227
40.3269
41.612
42.6563
43.2818
43.2799
42.4535
40.6668
37.8927
34.2441
29.9791
25.4753
21.1742
17.5061
14.8094
13.2651
12.8607
13.3955
14.5269
15.8479
16.9772
17.6398
17.7179
17.2615
16.4568
15.5643
14.8451
14.4953
14.6058
15.1554
16.0336
17.0834
18.1483
19.1086
19.8991
20.5063
20.9509
21.2639
21.4686
21.5722
21.5694
21.4549
21.2383
20.9538
20.6631
20.4471
20.3925
20.5739
21.0391
21.7976
22.8165
24.0212
25.3012
26.5206
27.5306
28.1868
28.3681
27.9983
27.0646
25.6317
23.8446
21.9183
20.1125
18.695
17.8973
17.8737
18.6695
20.2091
22.3038
24.6817
27.032
29.0546
30.5051
31.2254
31.1561
30.33
28.8531
26.881
24.5984
22.2089
19.9325
18.0079
16.6902
16.2352
16.869
18.744
21.8922
26.192
31.3602
36.9787
42.5529
47.589
51.6708
54.5156
55.9972
56.1345
55.0579
52.9717
50.132
46.8457
43.4831
40.4815
38.3116
37.391
37.9474
39.8686
42.5979
45.1406
46.2286
44.6443
39.6451
31.3745
21.1194
11.2846
5.02246
5.54679
15.2724
34.9956
63.3602
96.801
130.05
157.135
172.655
173.026
157.371
127.814
89.0814
47.4937
9.60869
-19.1561
-35.5771
-39.1128
-31.7397
-17.2263
-0.0716806
15.5932
26.8655
32.5048
32.8922
29.5955
24.7162
20.2285
17.4867
17.0047
18.514
21.2302
24.2073
26.6615
28.1743
28.7418
28.6874
28.4953
28.6307
29.4067
30.9256
33.0982
35.7148
38.5353
41.364
44.0894
46.6846
49.1777
51.6085
53.9922
56.3007
58.4665
60.4052
62.0455
63.3542
64.3468
65.0787
65.6189
66.0166
66.2704
66.3137
66.0232
65.2499
63.8652
61.8079
59.1157
55.929
52.463
48.955
45.6021
42.5105
39.673
36.9869
34.3048
31.5055
28.5587
25.5607
22.7259
20.3338
18.6453
17.8167
17.8389
18.524
19.5474
20.5333
21.1594
21.2464
20.8057
20.0282
19.2188
18.6955
18.6867
19.2573
20.2875
21.509
22.588
23.2256
23.2463
22.647
21.5917
20.3575
19.2487
18.5074
18.2477
18.4316
18.8906
19.385
19.6778
19.6031
19.1077
18.2578
17.2125
16.1757
15.3437
14.8614
14.7992
15.1509
15.8482
16.7835
17.8324
18.8716
19.7902
20.4975
20.9309
21.0637
20.914
20.5477
20.0732
19.6235
19.3281
19.2801
19.5093
19.9698
20.5496
21.1007
21.4832
21.6102
21.4801
21.1847
20.8898
20.7922
21.0669
21.8183
23.0516
24.6725
26.5162
28.3969
30.1636
31.7454
33.1723
34.5641
36.0874
37.8915
40.0394
42.4542
44.9003
47.0122
48.372
48.6241
47.5996
45.4137
42.4991
39.5456
37.3419
36.5448
37.4335
39.7248
42.5298
44.5016
44.1764
40.4454
33.0376
22.862
12.069
3.75041
1.29358
7.51236
23.7679
49.3277
81.177
114.396
143.07
161.537
165.689
153.979
127.873
91.6028
51.2718
13.528
-15.86
-33.1719
-37.369
-30.0648
-14.883
3.58849
20.9493
33.9441
41.0063
42.3026
39.3376
34.2894
29.2979
25.9054
24.7803
25.7455
28.048
30.7392
33.0309
34.5186
35.2301
35.5156
35.8481
36.6181
37.9946
39.8899
42.0242
44.0532
45.7037
46.8702
47.6429
48.2668
49.0532
50.2782
52.1027
54.5349
57.4391
60.5812
63.6881
66.5016
68.8121
70.4684
71.3694
71.4497
70.6702
69.0189
66.5216
63.2566
59.3618
55.0296
50.4854
45.956
41.6341
37.6528
34.0752
30.9038
28.1055
25.6435
23.5044
21.712
20.3223
19.3997
18.9842
19.0574
19.5218
20.2005
20.8625
21.2683
21.227
20.6515
19.5952
18.2604
16.9701
16.109
16.0411
17.0241
19.1383
22.249
26.0132
29.9312
33.4361
36.0011
37.2425
36.9964
35.3498
32.621
29.2903
25.8982
22.9318
20.7252
19.3965
18.8361
18.7502
18.7487
18.4593
17.6391
16.2544
14.5079
12.8009
11.6354
11.4787
12.6217
15.0705
18.5016
22.3013
25.6836
27.8628
28.2396
26.5523
22.9517
17.9782
12.4443
7.25159
3.18991
0.772074
0.145445
1.10148
3.17506
5.80077
8.47823
10.8986
12.9987
14.9333
16.9808
19.4196
22.4147
25.9524
29.84
33.7643
37.3886
40.4499
42.8301
44.5769
45.8762
46.989
48.1755
49.6311
51.4496
53.6163
56.0253
58.5098
60.8736
62.9213
64.487
65.4661
65.8478
65.7394
65.3665
65.0297
65.0118
65.4466
66.1871
66.7277
66.2347
63.7216
58.3574
49.8445
38.7583
26.7176
16.2817
10.5305
12.3787
23.7686
44.9509
74.0762
107.257
139.156
164.002
176.816
174.551
156.847
126.187
87.4119
46.6828
10.1649
-17.2541
-32.8919
-36.638
-30.6989
-18.8308
-5.29026
6.21103
13.2852
15.217
12.8454
8.07216
3.17331
0.124411
0.112851
3.33738
9.10147
16.1267
22.9649
28.383
31.6233
32.4968
31.319
28.74
25.5385
22.44
20.0005
18.564
18.2812
19.1591
21.1156
24.0179
27.7013
31.9724
36.6092
41.3693
46.0078
50.3041
54.0877
57.2543
59.7665
61.6391
62.9145
63.6387
63.8443
63.5471
62.7534
61.4748
59.7405
57.6032
55.1348
52.414
49.5118
46.4815
43.3582
40.1685
36.9484
33.7607
30.7061
27.9212
25.5601
23.7639
22.6235
22.1467
22.2379
22.7
23.2596
23.6145
23.4936
22.7172
21.2427
19.1835
16.7922
14.4111
12.3958
11.0331
10.47
10.6759
11.4489
12.466
13.3676
13.8517
13.754
13.0898
12.0457
10.9232
10.0492
9.68113
9.932
10.7393
11.8842
13.0561
13.941
14.3083
14.0717
13.3066
12.2228
11.1024
10.2237
9.79243
9.89898
10.5102
11.4935
12.6613
13.8212
14.8158
15.5436
15.9598
16.0614
15.8668
15.3995
14.6822
13.7429
12.6281
11.416
10.222
9.19124
8.47704
8.21052
8.46978
9.25807
10.4994
12.0546
13.7566
15.4543
17.0561
18.557
20.0428
21.6665
23.6023
25.9908
28.8909
32.2539
35.9313
39.7129
43.3866
46.7971
49.8842
52.6835
55.2862
57.772
60.1405
62.273
63.9481
64.9172
65.021
64.305
63.0827
61.9025
61.4041
62.0893
64.0758
66.9243
69.6282
70.8146
69.1416
63.8022
54.9894
44.1542
33.9286
27.6632
28.6475
39.1887
59.7954
88.7156
122.005
154.171
179.267
192.195
189.887
172.048
141.269
102.465
61.7864
25.2718
-2.39901
-18.762
-23.8402
-19.8097
-10.1984
1.13148
10.933
17.2212
19.4898
18.508
15.8162
13.1127
11.7194
12.2644
14.6322
18.145
21.8747
24.9676
26.878
27.4613
26.9276
25.7027
24.266
23.0209
22.2335
22.0385
22.4855
23.5908
25.362
27.7876
30.7982
34.2267
37.7942
41.1389
43.8866
45.7449
46.5883
46.5048
45.784
44.846
44.1304
43.9766
44.5303
45.7026
47.1916
48.5582
49.334
49.1308
47.7231
45.0875
41.3924
36.9487
32.1376
27.3368
22.8628
18.9382
15.687
13.1516
11.3205
10.1563
9.61502
9.65134
10.2115
11.2181
12.5549
14.0599
15.5319
16.7541
17.5296
17.7229
17.2946
16.3196
14.9806
13.5352
12.2623
11.4004
11.0935
11.3603
12.0954
13.1043
14.1635
15.0887
15.7913
16.3068
16.785
17.4443
18.5011
20.0958
22.2354
24.7711
27.4174
29.81
31.5867
32.4711
32.3364
31.2347
29.3827
27.1108
24.7863
22.7336
21.1676
20.1581
19.6289
19.3935
19.2123
18.8595
18.1825
17.14
15.812
14.3818
13.0952
12.2079
11.9325
12.3955
13.612
15.4794
17.7906
20.2626
22.5762
24.4233
25.5569
25.8392
25.2798
24.0552
22.4999
21.0617
20.222
20.3898
21.7915
24.3835
27.8155
31.4652
34.5448
36.2633
36.0073
33.4945
28.8572
22.6306
15.6443
8.84323
3.08473
-1.03669
-3.29253
-3.82915
-3.08729
-1.66082
-0.137966
1.03173
1.6134
1.59464
1.13462
0.478825
-0.13047
-0.522411
-0.62983
-0.484382
-0.184414
0.148791
0.410898
0.53983
0.522702
0.387017
0.182928
-0.0354234
-0.22287
-0.346972
-0.38269
-0.301368
-0.0594961
0.406809
1.17712
2.33044
3.92019
5.94728
8.34076
10.9549
13.588
16.0214
18.0701
19.6299
20.7063
21.412
21.9318
22.4628
23.1489
24.0321
25.0396
26.0138
26.7788
27.2215
27.3597
27.3686
27.5545
28.276
29.8372
32.385
35.8458
39.9238
44.1663
48.0766
51.2423
53.4394
54.6814
55.1996
55.3634
55.567
56.1177
57.1586
58.6444
60.3714
62.0447
63.357
64.0531
63.9635
63.004
61.1519
58.4165
54.8205
50.4036
45.2453
39.4972
33.4076
27.3235
21.6624
16.8568
13.2838
11.196
10.6735
11.6072
13.7176
16.6048
19.8176
22.9269
25.5889
27.5894
28.86
29.4686
29.5858
29.4349
29.2366
29.1577
29.2763
29.5706
29.9349
30.2183
30.2778
30.0293
29.4813
28.7395
27.978
27.3835
27.0887
27.1163
27.3527
27.5651
27.4599
26.77
25.3454
23.2209
20.6373
18.0063
15.8265
14.5686
14.5626
15.9146
18.4764
21.8748
25.5919
29.0734
31.8383
33.5623
34.1177
33.5676
32.1193
30.0576
27.6765
25.2255
22.8817
20.7474
18.8663
17.2486
15.8944
14.8086
14.0051
13.5019
13.3128
13.4395
13.868
14.57
15.5077
16.6403
17.9304
19.3489
20.8791
22.5197
24.2859
26.2063
28.3124
30.6177
33.0875
35.6053
37.9483
39.7865
40.7213
40.3664
38.4637
35.0056
30.3254
25.109
20.3006
16.8958
15.6603
16.8447
19.9921
23.9258
26.9691
27.3823
23.9271
16.4066
6.00296
-4.73521
-12.3226
-13.133
-4.38903
14.9102
43.3988
77.3025
111.023
138.253
153.376
152.799
135.865
105.1
65.7117
24.4481
-11.8833
-37.8709
-50.5642
-49.9058
-38.4595
-20.5545
-1.10721
15.5554
26.5773
30.9759
29.529
24.2494
17.6471
12.0051
8.85467
8.75151
11.3535
15.7164
20.681
25.2249
28.6888
30.8471
31.8404
32.0296
31.8362
31.6217
31.6302
31.991
32.7557
33.9397
35.5465
37.5659
39.9545
42.6159
45.3976
48.1131
50.5862
52.7018
54.4443
55.9051
57.2535
58.6764
60.305
62.1531
64.0875
65.8434
67.0823
67.4745
66.7841
64.9282
61.9949
58.2148
53.897
49.3513
44.8215
40.4509
36.2888
32.3317
28.5823
25.1027
22.0393
19.6094
18.0496
17.5434
18.1497
19.7575
22.0831
24.715
27.1953
29.1179
30.2171
30.4227
29.8694
28.8564
27.7702
26.9901
26.8004
27.3292
28.5268
30.1863
31.9988
33.6268
34.7792
35.2701
35.0509
34.2106
32.9473
31.5214
30.1997
29.2039
28.6733
28.645
29.056
29.7622
30.5701
31.2759
31.7032
31.7357
31.3371
30.5573
29.5211
28.4019
27.3845
26.6237
26.2078
26.136
26.3157
26.582
26.7344
26.5842
25.9983
24.9295
23.426
21.6176
19.6836
17.8131
16.1672
14.8551
13.9258
13.3772
13.1741
13.2697
13.6219
14.2006
14.9876
15.9708
17.1383
18.4739
19.9564
21.5592
23.2474
24.9732
26.6681
28.2384
29.5694
30.5427
31.0662
31.1104
30.7391
30.1204
29.5057
29.1744
29.3531
30.1284
31.3831
32.7826
33.8283
33.9767
32.8006
30.1476
26.244
21.6967
17.3714
14.1603
12.6944
13.0843
14.784
16.6517
17.2291
15.1982
9.90244
1.77899
-7.45681
-14.9835
-17.4224
-11.6696
4.18097
30.0744
63.6296
100.327
134.264
159.344
170.615
165.438
144.17
110.176
69.1472
27.8875
-7.13297
-31.0971
-41.7214
-39.5054
-27.3314
-9.56361
9.08991
24.648
34.6078
38.2324
36.373
30.9412
24.2257
18.2568
14.3725
13.0608
14.0601
16.6312
19.8866
23.0672
25.7028
27.6391
28.9604
29.8667
30.5582
31.1699
31.7647
32.3713
33.0368
33.8622
35.0014
36.6211
38.8391
41.6629
44.9578
48.4574
51.8183
54.705
56.8777
58.2564
58.9388
59.1651
59.2381
59.4215
59.8488
60.4705
61.0592
61.2741
60.7663
59.2946
56.8147
53.5121
49.7657
46.0501
42.8041
40.307
38.6016
37.4889
36.5994
35.5176
33.9231
31.6992
28.9766
26.0947
23.4935
21.5712
20.5547
20.4255
20.9275
21.6534
22.1824
22.2231
21.7151
20.8534
20.0281
19.6977
20.2366
21.8054
24.2849
27.2961
30.2981
32.735
34.1874
34.4826
33.7356
32.3092
30.7106
29.4556
28.9398
29.3502
30.6368
32.544
34.6874
36.6496
38.0695
38.7057
38.4645
37.395
35.661
33.5013
31.1876
28.9866
27.1255
25.7619
24.9577
24.6618
24.7076
24.834
24.7311
24.1082
22.7715
20.6916
18.0405
15.1818
12.6104
10.8501
10.3341
11.2968
13.709
17.2745
21.4925
25.7712
29.5639
32.492
34.4249
35.4961
36.0543
36.5634
37.4776
39.1216
41.6036
44.779
48.2715
51.5481
54.0344
55.2506
54.943
53.1823
50.4011
47.3466
44.9404
44.0576
45.2645
48.5817
53.3489
58.2624
61.6203
61.7535
57.558
48.9869
37.3437
25.2419
16.1738
13.7382
20.6889
38.0478
64.5413
96.5605
128.722
154.941
169.77
169.69
153.985
124.99
87.6036
48.1972
13.1895
-12.3473
-25.7018
-26.92
-18.5201
-4.64454
10.0915
21.7359
27.8343
27.7831
22.6725
14.7255
6.53627
0.337258
-2.51775
-1.75256
1.94976
7.29567
12.8263
17.3218
20.0649
20.9205
20.2465
18.695
16.9797
15.6789
15.1208
15.3625
16.249
17.5179
18.9112
20.2604
21.5267
22.7923
24.2132
25.9544
28.1278
30.7501
33.7335
36.9049
40.0495
42.9608
45.4846
47.543
49.1343
50.3111
51.1439
51.6846
51.94
51.8632
51.365
50.3399
48.6994
46.4015
43.4701
40.0004
36.1503
32.1238
28.1492
24.4577
21.2644
18.7492
17.0396
16.1906
16.1683
16.8377
17.9649
19.2366
20.3005
20.8238
20.5576
19.3955
17.4087
14.8469
12.0992
9.62112
7.84246
7.07653
7.4531
8.89198
11.1243
13.7565
16.3614
18.5728
20.1612
21.0717
21.4165
21.4276
21.3835
21.5321
22.0311
22.9189
24.1241
25.5033
26.8961
28.1762
29.2831
30.2261
31.0616
31.8537
32.6347
33.381
34.0133
34.4232
34.5161
34.2549
33.6876
32.9484
32.2282
31.7248
31.588
31.8789
32.5575
33.5046
34.5693
35.6266
36.6225
37.5882
38.6156
39.8003
41.1706
42.6302
43.942
44.7668
44.7551
43.67
41.5004
38.5239
35.2814
32.456
30.6731
30.2746
31.1384
32.6152
33.6305
32.9555
29.5973
23.2089
14.3932
4.78379
-3.16468
-6.67248
-3.32092
8.23552
27.7277
53.0752
80.6305
105.85
124.25
132.437
128.927
114.562
92.3793
66.97
43.4649
26.4102
18.8061
21.5389
33.3307
51.1891
71.2152
89.5448
103.181
110.527
111.526
107.414
100.222
92.1557
85.0611
80.0664
77.4736
76.8721
77.4007
78.0592
77.9782
76.5912
73.689
69.3789
63.9878
57.9524
51.7292
45.7365
40.324
35.7575
32.2037
29.7111
28.1904
27.4052
26.9882
26.488
25.4464
23.4918
20.4284
16.2985
11.4
6.24932
1.49545
-2.20101
-4.2987
-4.48969
-2.77194
0.536651
4.84835
9.4119
13.4552
16.3357
17.666
17.3874
15.7733
13.3602
10.8208
8.80916
7.81352
8.05216
9.4371
11.6126
14.0564
16.2158
17.6422
18.0894
17.5539
16.2509
14.5379
12.8128
11.4158
10.5617
10.3173
10.6227
11.3439
12.3355
13.4916
14.7713
16.1937
17.8093
19.6606
21.7478
24.0109
26.3336
28.566
30.5575
32.19
33.402
34.1978
34.6436
34.8515
34.959
35.1077
35.4243
36.006
36.9087
38.1392
39.65
41.339
43.0543
44.6054
45.7808
46.3697
46.1871
45.0985
43.0442
40.06
36.2928
32.0064
27.5727
23.4428
20.0957
17.966
17.3625
18.3938
20.9228
24.5685
28.7643
32.8661
36.2883
38.6307
39.7621
39.8305
39.1958
38.3035
37.5392
37.1128
37.014
37.0528
36.9696
36.57
35.8239
34.8816
33.9902
33.3357
32.876
32.2484
30.8191
27.8955
23.0593
16.5172
9.33005
3.3999
1.15154
4.94231
16.3345
35.435
60.5193
88.1023
113.5
131.788
138.929
132.782
113.714
84.6243
50.3565
16.6422
-11.1662
-29.2408
-36.0164
-32.3493
-21.0858
-6.18962
8.31669
19.3059
25.1592
25.9147
22.9645
18.4386
14.4828
12.6437
13.5169
16.7211
21.1579
25.4422
28.3531
29.1726
27.8284
24.8303
21.0489
17.4275
14.7209
13.3334
13.2861
14.2983
15.9376
17.7779
19.5171
21.024
22.3173
23.5002
24.6842
25.9353
27.2597
28.6285
30.0247
31.4884
33.1377
35.153
37.7275
40.9991
44.9851
49.5429
54.3684
59.0349
63.0632
66.0039
67.5143
67.412
65.6971
62.543
58.2616
53.2527
47.9489
42.7621
38.0389
34.0271
30.856
28.5312
26.9464
25.9113
25.1934
24.5655
23.8507
22.9549
21.876
20.6899
19.5154
18.4692
17.6245
16.9869
16.4951
16.0456
15.5337
14.8956
14.137
13.3383
12.6337
12.1714
12.0679
12.3719
13.0499
13.9966
15.0674
16.1195
17.0502
17.8185
18.4467
19.002
19.5685
20.2182
20.9922
21.8948
22.9003
23.9659
25.0438
26.0864
27.0432
27.852
28.4308
28.6763
28.4737
27.7174
26.3391
24.3349
21.7846
18.8556
15.7883
12.8636
10.3586
8.49689
7.40455
7.08196
7.3995
8.12191
8.95957
9.63824
9.97145
9.91628
9.59339
9.25946
9.23181
9.78021
11.0133
12.7936
14.7118
16.1364
16.3349
14.641
10.6246
4.22045
-4.22189
-13.9814
-24.0915
-33.516
-41.3294
-46.8587
-49.7581
-50.0106
-47.8698
-43.7696
-38.2337
-31.8045
-25.0018
-18.3029
-12.1329
-6.849
-2.71509
0.131351
1.70532
2.17913
1.85528
1.10774
0.303347
-0.275983
-0.48827
-0.347303
0.00552352
0.364752
0.540323
0.428462
0.0519498
-0.443285
-0.83534
-0.904124
-0.516704
0.306646
1.36903
2.32924
2.78795
2.41037
1.05496
-1.12768
-3.65857
-5.77637
-6.56561
-5.14492
-0.874467
6.46764
16.5868
28.6821
41.5704
53.9018
64.4182
72.1976
76.8254
78.4538
77.737
75.6599
73.3038
71.6061
71.1694
72.1618
74.3243
77.0738
79.6694
81.3959
81.719
80.3784
77.4046
73.0656
67.7672
61.9398
55.9423
50.0057
44.2246
38.5893
33.0413
27.5301
22.053
16.6672
11.4742
6.58605
2.08857
-1.98435
-5.65544
-8.9861
-12.0421
-14.8546
-17.3902
-19.5398
-21.1323
-21.9693
-21.8745
-20.7439
-18.5859
-15.5407
-11.8745
-7.94765
-4.16124
-0.892724
1.56993
3.0822
3.6741
3.55009
3.05455
2.60617
2.61208
3.3786
5.03877
7.51545
10.5321
13.6725
16.4773
18.5556
19.6815
19.8506
19.2782
18.3387
17.4616
17.0124
17.1936
17.993
19.1954
20.4546
21.4027
21.765
21.4442
20.5512
19.3714
18.2795
17.6284
17.6472
18.3777
19.6676
21.2218
22.6927
23.7826
24.3271
24.3365
23.9842
23.5495
23.3326
23.5688
24.3652
25.6763
27.3236
29.0485
30.5847
31.728
32.3869
32.6042
32.5466
32.4675
32.6528
33.3602
34.7615
36.8965
39.6441
42.7187
45.6951
48.0674
49.3404
49.141
47.3296
44.0801
39.8959
35.5373
31.8575
29.5729
29.0233
29.9986
31.7043
32.915
32.3099
28.9257
22.6068
14.305
6.10108
0.877862
1.67556
10.8609
29.3218
55.926
87.4354
118.965
144.923
160.232
161.532
148.047
121.872
87.5896
51.2868
19.2183
-3.54692
-14.1593
-12.4551
-0.764917
16.8493
35.6973
51.6001
61.774
65.2638
62.8664
56.6279
49.1037
42.6089
38.6602
37.7297
39.326
42.3265
45.4241
47.5418
48.102
47.0966
44.9736
42.4049
40.0268
38.2382
37.1084
36.4102
35.7478
34.729
33.1219
30.9481
28.4896
26.2139
24.6439
24.2137
25.1508
27.4118
30.6869
34.4627
38.1257
41.0774
42.8355
43.1023
41.7929
39.025
35.081
30.3531
25.2847
20.3153
15.8327
12.1373
9.41692
7.73665
7.04362
7.18831
7.95957
9.12738
10.4843
11.8755
13.21
14.4505
15.5867
16.6031
17.4536
18.0542
18.3
18.1013
17.4282
16.3461
15.0286
13.737
12.7699
12.3926
12.7671
13.9035
15.6464
17.7039
19.7104
21.3076
22.2206
22.3104
21.5881
20.1929
18.3413
16.2659
14.1636
12.1653
10.3341
8.68734
7.22941
5.98173
4.99652
4.34947
4.11391
4.32695
4.96064
5.91021
7.00539
8.04276
8.83043
9.23145
9.19337
8.75515
8.03014
7.17074
6.32563
5.60219
5.04424
4.6303
4.29113
3.93991
3.50526
2.95728
2.31962
1.66499
1.09704
0.725011
0.639862
0.899712
1.52902
2.53103
3.9074
5.67525
7.87041
10.5294
13.6493
17.1357
20.7558
24.122
26.7247
28.0245
27.5918
25.2619
21.2562
16.2175
11.1229
7.0694
4.97111
5.24783
7.60637
11.0087
13.879
14.5335
11.7382
5.23957
-3.90707
-13.3569
-19.8997
-20.2305
-11.8937
5.85346
31.5175
61.3806
90.1059
111.833
121.513
116.145
95.5878
62.7228
22.8945
-17.2297
-51.1052
-73.6982
-82.477
-77.7786
-62.4953
-41.1993
-18.9643
-0.194706
12.2513
17.4643
16.3721
11.209
4.75755
-0.414787
-2.53267
-0.891249
4.1807
11.6043
19.9606
27.897
34.4294
39.0865
41.8991
43.2763
43.8302
44.205
44.9504
46.4496
48.8953
52.2951
56.4892
61.1722
65.922
70.2444
73.6385
75.6836
76.1309
74.9771
72.4951
69.2006
65.7556
62.8226
60.9071
60.2289
60.6608
61.7556
62.858
63.2742
62.4515
60.1203
56.3562
51.5468
46.2735
41.1432
36.6213
32.9139
29.9349
27.3636
24.7765
21.8082
18.2954
14.3556
10.3787
6.93164
4.60264
3.82966
4.76125
7.18845
10.5667
14.1219
17.0143
18.5176
18.1716
15.8741
11.8924
6.79834
1.34345
-3.6947
-7.66191
-10.1428
-11.0222
-10.4843
-8.954
-6.99514
-5.18744
-4.00632
-3.72889
-4.38365
-5.75244
-7.42318
-8.88076
-9.6159
-9.22775
-7.49782
-4.42067
-0.187264
4.87052
10.357
15.8899
21.1584
25.9516
30.1565
33.7339
36.6893
39.0498
40.8567
42.1743
43.1036
43.7915
44.4232
45.1941
46.2684
47.7345
49.5756
51.6678
53.8101
55.7811
57.4078
58.627
59.5217
60.321
61.3637
63.0292
65.6531
69.4411
74.3972
80.282
86.6107
92.7005
97.7665
101.062
102.035
100.475
96.5986
91.0299
84.6716
78.4585
73.0621
68.6279
64.6462
60.0366
53.466
43.8476
30.8883
15.5086
-0.0371424
-12.4449
-18.0421
-13.7276
2.06907
28.6916
63.0583
100.077
133.614
157.802
168.352
163.532
144.535
115.163
80.8974
47.6112
20.2788
1.99545
-6.46107
-6.46262
-0.859614
6.96674
14.0494
18.5284
19.936
19.0481
17.3937
16.6028
17.7962
21.199
26.0786
31.0187
34.4442
35.2406
33.2851
29.7198
26.8603
27.7244
35.271
51.5261
76.8241
109.384
145.376
179.507
206.036
219.98
218.246
200.372
168.712
127.982
84.2803
43.8262
11.7116
-9.02319
-17.7954
-16.3021
-7.85186
3.58552
14.3501
21.8429
24.9035
23.7752
19.7332
14.5307
9.83688
6.81863
5.94668
7.03176
9.42991
12.3209
14.9637
16.8604
17.8066
17.8421
17.1495
15.9485
14.4258
12.7158
10.9234
9.16526
7.60078
6.43326
5.87518
6.08881
7.12374
8.87548
11.0831
13.3714
15.328
16.5961
16.9572
16.3805
15.0275
13.21
11.3152
9.7177
8.70211
8.415
8.85494
9.89858
11.3506
12.9997
14.6644
16.2154
17.5743
18.6924
19.5243
20.0073
20.0598
19.5987
18.5732
17.0024
15.0041
12.8021
10.7056
9.06333
8.19999
8.34933
9.59952
11.8633
14.8807
18.2552
21.5165
24.1978
25.9132
26.4199
25.6536
23.7316
20.9242
17.6023
14.1731
11.0194
8.45434
6.69833
5.88063
6.05708
7.23358
9.38312
12.4477
16.3234
20.8358
25.7175
30.6042
35.0596
38.6322
40.9368
41.7406
41.0304
39.0383
36.2118
33.129
30.3755
28.4117
27.4659
27.4814
28.1358
28.9295
29.3217
28.8794
27.3989
24.9659
21.9381
18.8527
16.2845
14.6931
14.3008
15.0358
16.5557
18.3451
19.8599
20.6775
20.6111
19.7561
18.4571
17.2055
16.4976
16.6933
17.9158
20.0173
22.6198
25.214
27.2887
28.4524
28.5148
27.5115
25.6701
23.3349
20.877
18.6154
16.7696
15.4486
14.6705
14.3963
14.5621
15.0984
15.9339
16.9894
18.1728
19.3826
20.5206
21.5095
22.3028
22.8806
23.2285
23.3104
23.0524
22.3535
21.1328
19.4001
17.3239
15.2563
13.6835
13.0903
13.7654
15.6073
18.012
19.9158
20.0289
17.2313
11.0358
1.97267
-8.25415
-16.9492
-20.9619
-17.4848
-4.91769
16.4461
44.1402
73.7871
99.894
117.021
121.041
110.162
85.4447
50.6489
11.4502
-25.7899
-55.3848
-73.4793
-78.7253
-72.3417
-57.5883
-38.8317
-20.4697
-5.99175
2.61588
5.02526
2.31293
-3.57076
-10.4279
-16.3615
-20.1262
-21.2396
-19.8838
-16.6776
-12.4144
-7.8449
-3.54636
0.115345
2.95769
4.92465
6.03436
6.34946
5.97077
5.0425
3.75364
2.32493
0.979735
-0.0933869
-0.77454
-1.03136
-0.917203
-0.549974
-0.0789363
0.350833
0.62772
0.691577
0.539494
0.221128
-0.173755
-0.533497
-0.747236
-0.730495
-0.450371
0.055519
0.673817
1.23053
1.52873
1.40392
0.784384
-0.261812
-1.51128
-2.61334
-3.16138
-2.7934
-1.29561
1.32163
4.80143
8.68372
12.4072
15.4444
17.4327
18.2636
18.1035
17.3408
16.4737
15.9745
16.1692
17.1682
18.8656
21.0025
23.2686
25.408
27.292
28.9374
30.4676
32.0327
33.7204
35.4896
37.153
38.4139
38.9492
38.5097
37.0077
34.5623
31.4891
28.2357
25.2813
23.0283
21.715
21.3721
21.8322
