0.0238276
0.0400416
0.0350392
0.00547354
-0.0309728
-0.0406331
0.00407071
0.0963797
0.182044
0.179414
0.0312351
-0.240029
-0.515921
-0.633217
-0.489174
-0.14061
0.180197
0.174047
-0.329287
-1.20025
-1.99216
-2.13291
-1.24763
0.581642
2.82429
4.85165
6.48543
8.41738
12.1598
19.3895
30.894
45.628
60.4638
70.9661
73.0437
64.8368
47.9705
27.48
10.2575
2.54664
7.49524
23.8277
46.2656
67.5797
81.4311
84.7915
78.8915
68.3024
58.5973
53.7055
54.2218
57.4788
59.3256
56.6893
49.5678
41.3599
37.2691
41.5305
54.8602
73.4732
90.2633
97.6708
90.9397
70.3009
41.1593
12.2944
-7.09855
-10.3633
4.62714
34.8948
73.1632
109.75
135.147
142.806
131.426
105.908
76.2498
54.3028
49.2926
63.8806
92.6787
124.258
146.066
150.111
136.659
114.017
94.4031
87.9108
97.6243
118.327
139.361
150.024
144.66
124.918
98.3052
74.1428
59.221
55.3103
59.4076
66.0662
70.245
69.2348
63.0841
53.8945
44.7661
38.9438
39.1844
47.0647
62.1318
81.2762
99.0013
108.999
106.673
91.4816
67.7452
43.2531
26.1396
21.5401
29.7113
46.5054
65.7785
82.2835
93.4797
99.5033
101.737
101.207
97.956
91.6731
82.9184
73.8079
67.4537
66.3795
70.9333
78.8243
86.2142
89.775
88.4568
83.8662
79.0366
76.412
76.3712
77.2476
76.7994
74.0991
70.5138
69.0334
72.3107
80.672
91.4369
100.087
102.65
97.8685
87.8638
76.9459
69.3678
67.4269
70.9555
78.2224
87.3069
96.795
105.342
110.728
109.652
99.118
78.999
54.1236
33.9414
28.988
45.3962
80.3665
121.604
151.909
157.215
134.109
92.5988
52.1276
32.3787
43.4001
80.2465
125.173
156.5
159.697
134.931
97.1098
68.2614
66.1399
94.8629
142.389
186.136
203.922
184.746
134.086
71.1698
19.7437
-3.00532
6.11775
36.0226
68.0147
85.7893
83.5242
67.9981
53.8767
54.8974
75.7918
109.306
139.902
152.121
139.086
106.53
70.1403
47.5662
49.3096
73.3171
106.16
130.211
133.05
114.178
85.4689
65.0955
68.0345
98.0688
145.452
191.499
217.788
215.287
188.704
153.822
129.2
126.56
144.864
171.188
187.899
182.294
153.564
113.369
79.7638
67.8125
81.978
114.33
149.341
172.394
177.16
167.812
155.115
148.995
152.149
158.482
157.241
140.278
108.041
70.6517
43.3045
38.5131
59.4995
98.3457
139.823
168.706
176.63
165.009
142.885
121.356
107.864
103.387
103.659
103.2
99.4825
94.714
94.3051
103.084
121.629
144.989
164.663
172.87
166.812
150.572
133.53
125.951
133.932
156.208
184.438
206.838
213.441
200.497
172.066
138.255
111.133
100.234
109.515
136.622
174.232
212.448
241.236
252.381
240.979
206.625
154.177
93.5504
37.9459
0.433098
-10.27
6.76961
43.7017
86.1421
118.091
127.684
111.482
75.5495
32.9658
-1.16405
-15.152
-4.55528
26.9008
69.3821
110.951
141.867
157.596
159.54
153.459
146.388
143.378
145.385
149.066
148.5
138.064
115.273
82.4733
46.6936
17.674
4.69314
13.251
42.7605
86.1661
131.848
167.402
184.093
180.296
162.36
142.182
132.181
139.65
163.054
192.231
212.723
212.457
187.653
144.955
98.558
63.5651
48.8431
53.0341
65.8448
74.0046
68.7683
50.9418
30.6507
21.8606
34.5001
68.391
112.295
148.717
162.078
146.127
106.904
59.8639
22.7596
7.84957
17.1304
42.5633
70.7424
89.4323
92.8228
83.2909
69.2969
60.7802
64.3323
80.236
102.454
121.351
127.867
117.387
91.7411
58.551
28.2221
9.83275
7.66905
19.8786
39.7732
59.0891
71.6053
75.4049
72.8199
68.3354
65.7707
66.3275
68.4737
69.4973
67.604
63.1938
58.5546
56.2401
57.2241
60.0434
61.5094
58.5987
50.4122
39.0446
28.8312
24.348
28.2116
39.7978
55.486
70.2495
79.7882
82.2191
78.6358
72.4053
67.5996
67.2513
72.1028
80.2795
87.9676
90.8474
85.7894
72.22
52.6353
32.0007
16.1607
9.78548
14.6164
28.724
47.124
63.5585
72.7538
72.2611
63.1603
49.3935
36.0687
27.4736
25.604
29.7285
37.0433
44.0317
47.9132
47.6141
43.9467
39.0226
35.2049
34.0443
35.616
38.5152
40.5206
39.6751
35.3457
28.7785
22.8276
20.8591
25.2199
35.9251
50.2144
63.307
70.1641
67.5684
55.6195
37.9361
20.4051
8.96604
7.37092
15.8698
31.3456
48.7455
63.0794
71.0597
71.7404
66.1021
56.0889
43.799
31.2615
20.6743
14.5356
15.1106
23.1993
36.8892
51.35
60.376
59.3557
48.2403
32.6385
21.8846
24.5514
43.5411
73.5002
102.327
116.376
106.807
73.7623
26.1283
-22.8387
-61.4674
-83.8578
-90.2427
-83.9703
-67.6618
-41.4448
-4.52467
41.1613
88.1512
124.15
136.637
119.137
75.5156
19.4891
-30.8353
-60.7141
-64.8329
-48.6419
-24.5517
-5.29962
1.93007
-2.17968
-10.9583
-16.2143
-12.6274
0.0753793
17.7588
34.3935
44.8135
46.4157
39.4189
26.1231
9.8918
-5.67534
-17.3408
-22.787
-21.2071
-13.7086
-3.15693
6.74951
12.9452
14.367
12.4952
10.6724
12.429
19.5956
31.1593
43.4897
51.8866
52.7347
45.2292
31.8405
17.2986
6.59014
2.91355
6.51876
14.8955
24.1209
30.661
32.7854
31.018
27.5529
25.035
25.3233
28.7649
34.1999
39.5752
42.8317
42.6931
39.0979
33.1756
26.816
21.9807
19.9735
20.9255
23.7209
26.4678
27.3976
25.8309
22.725
20.4216
21.572
27.6712
37.9437
49.2656
57.3391
58.6644
52.338
40.6871
28.2946
19.8383
17.8618
21.6988
28.1597
33.5822
36.026
36.2788
37.0376
40.7629
47.5768
54.6227
57.4564
52.7633
40.7932
25.9476
14.9797
13.673
23.8127
42.151
61.9549
76.2588
81.0134
76.4651
66.2054
54.6977
44.8905
37.2975
30.8723
24.821
19.9379
18.4446
22.3836
31.6531
43.1031
51.5229
52.1813
43.5558
28.633
13.8644
6.1383
9.27161
21.8802
37.8336
49.1748
50.0805
39.8572
23.4289
9.04023
4.32409
12.7068
31.9262
55.3225
75.1328
86.0401
87.2039
81.9057
75.251
71.337
71.4241
73.9235
75.9201
75.1384
71.1675
65.3633
59.7092
55.4921
52.6401
50.0404
46.5131
41.7578
36.6909
33.0225
32.3704
35.416
41.5032
48.8124
54.981
57.9133
56.5103
51.0892
43.3242
35.6565
30.3224
28.3819
29.2447
31.0398
31.7505
30.5482
28.518
28.2132
32.1269
40.8878
52.2869
61.8891
65.1036
59.6795
47.229
32.8115
22.6485
21.0905
28.4208
40.6739
51.5942
55.7404
51.1596
40.3069
28.7975
22.6605
25.4571
36.6295
51.8012
64.8134
70.5028
66.9406
56.1541
43.0747
33.2571
30.4431
35.068
44.3285
53.6829
58.9895
58.245
52.152
43.3842
35.0723
29.3537
26.68
26.0735
25.9991
25.2617
23.4692
20.964
18.4566
16.6879
16.2864
17.7525
21.3928
27.1244
34.2699
41.5661
47.5082
50.8961
51.2552
48.8472
44.2716
37.9854
30.1695
21.1249
11.9296
4.76325
2.39972
6.89082
18.1087
33.1151
46.9992
54.9914
54.8076
47.8819
38.6682
32.2865
31.7941
36.6475
43.2466
47.2172
46.0362
40.415
33.6526
29.4539
29.6578
33.3264
37.7089
40.344
40.822
40.9886
43.4556
49.4552
57.5462
64.1275
65.5088
60.2255
50.089
39.2527
31.8421
29.6062
31.0234
32.3685
30.0333
22.667
11.8882
1.25155
-5.7943
-7.69954
-5.37449
-1.36123
1.72654
2.51725
1.26928
-0.700435
-2.02676
-2.07943
-1.12747
0.0574508
0.78373
0.814864
0.368628
-0.152461
-0.4532
-0.469187
-0.298278
-0.0571852
0.198986
0.446551
0.617084
0.581362
0.240009
-0.341362
-0.8814
-1.00711
-0.514695
0.401455
1.14803
1.03695
-0.240225
-2.2678
-3.98044
-4.22242
-2.53252
0.328692
2.5398
2.14389
-1.66588
-7.6246
-12.4854
-12.2783
-4.23055
11.6193
32.034
51.758
65.7783
71.5546
70.0614
65.0676
61.0006
60.505
62.9912
64.968
62.0186
51.4161
34.0162
14.4187
-0.755658
-5.68112
2.10043
20.5759
44.1505
66.1048
81.457
88.893
90.8883
92.0258
96.3813
105.298
116.664
126.055
129.145
124.132
112.889
100.218
91.5382
90.2325
96.0445
105.393
113.424
116.666
114.783
110.451
107.425
107.944
111.032
112.794
108.622
96.1297
77.0897
57.1497
43.3188
40.4758
48.7658
63.3424
76.6798
82.3092
78.0475
67.0272
55.9607
51.4967
56.505
68.1732
78.9049
79.644
64.078
31.7684
-11.2288
-54.5204
-87.3209
-102.439
-98.6182
-80.3662
-55.5532
-32.0186
-14.7303
-4.62681
0.621941
4.59812
10.0092
17.4653
25.5786
32.0943
35.3148
35.0679
32.83
31.0841
32.3183
38.1242
48.6981
62.8263
78.2798
92.4836
103.302
109.744
112.331
112.92
113.904
117.037
122.368
127.859
130.021
125.409
112.356
92.1093
68.7265
47.6935
33.8529
29.6344
34.4484
45.5111
59.5856
74.602
90.1723
106.689
123.628
138.334
146.41
143.918
130.289
110.016
91.551
83.3104
88.6506
102.81
114.244
110.482
85.8216
46.4937
9.76617
-3.45383
20.8699
81.8846
163.005
239.137
288.274
301.162
283.754
251.382
218.492
190.364
161.879
123.873
72.7002
16.4761
-26.5925
-37.4101
-7.48648
54.2979
124.163
174.339
186.653
161.393
116.63
78.5064
67.85
90.2806
134.693
180.262
207.597
207.882
185.501
153.597
125.819
109.162
101.606
95.1719
81.9698
59.4796
32.1939
9.12268
-1.02521
5.83304
27.4549
56.6207
84.348
103.176
109.224
102.732
87.5654
70.1919
58.2474
58.489
74.2094
102.935
135.82
159.886
162.976
139.585
94.6617
42.9952
3.76013
-7.60175
13.6399
59.1846
111.339
150.918
165.571
154.545
127.814
100.355
84.6805
85.3125
97.5907
110.917
114.421
102.149
75.4991
42.1376
12.3494
-5.29084
-7.01651
5.34769
25.8751
47.3346
63.9613
73.0987
75.27
72.9802
69.0663
65.4728
62.9587
61.6443
61.8096
64.2469
69.8052
78.3608
87.9381
94.7642
94.584
84.8017
66.3941
44.4463
26.7266
20.6965
30.2343
53.6458
84.0272
111.951
129.303
132.508
123.647
109.008
95.8499
89.0183
89.0394
92.5177
94.447
91.0992
81.9468
69.6776
58.4376
51.3777
48.896
48.5203
46.4302
39.7234
28.1588
14.438
2.9075
-2.59204
-0.588184
7.38054
17.5909
25.9162
29.6145
28.2641
23.5116
17.9278
13.6711
11.6438
11.4589
12.0562
12.4927
12.4327
12.1257
12.0025
12.2283
12.5225
12.3407
11.2645
9.32375
7.03664
5.14792
4.23556
4.42777
5.38872
6.55826
7.48021
8.01567
8.32694
8.66821
9.13678
9.55249
9.54309
8.78002
7.21579
5.17481
3.2394
1.99471
1.77692
2.56187
4.04421
5.843
7.69901
9.54251
11.401
13.2264
14.7806
15.6837
15.6173
14.5528
12.829
10.9795
9.3778
7.92741
6.05832
3.14562
-0.807607
-4.62626
-6.00599
-2.35074
7.82899
23.6076
41.2034
54.8858
59.0742
50.8104
31.4525
6.67194
-15.4322
-27.3937
-25.3082
-10.3359
11.8758
33.5514
47.8441
51.2552
44.4696
31.4469
17.3889
6.59698
1.1194
0.580139
2.99566
6.00465
7.89809
8.08152
6.94625
5.38331
4.25098
4.02255
4.69019
5.87492
7.03872
7.7026
7.60955
6.8017
5.60123
4.50154
3.99848
4.41591
5.79181
7.87573
10.246
12.5011
14.4395
16.1418
17.9067
20.0636
22.7493
25.7653
28.6014
30.634
31.411
30.879
29.4219
27.6704
26.1676
25.0645
24.0218
22.3916
19.6005
15.5328
10.6953
6.05598
2.62144
0.971271
0.995884
1.9799
2.98485
3.32243
2.86497
2.03675
1.51106
1.79714
2.94948
4.54832
5.93938
6.58139
6.30701
5.37151
4.29254
3.59183
3.57995
4.27344
5.44603
6.75126
7.843
8.45613
8.45074
7.83823
6.79121
5.61555
4.66341
4.19973
4.27912
4.70797
5.13369
5.23154
4.89294
4.30402
3.85752
3.93654
4.68726
5.91053
7.13733
7.84902
7.72284
6.77277
5.32048
3.82692
2.68608
2.08776
2.00199
2.26244
2.67903
3.11278
3.48879
3.76986
3.93267
3.9729
3.93322
3.92566
4.1224
4.70997
5.82321
7.48251
9.55236
11.7334
13.6005
14.7011
14.7091
13.5894
11.6852
9.63344
8.08389
7.3246
7.03182
6.36813
4.49735
1.31796
-2.01203
-3.20119
0.231818
9.50331
23.3186
37.633
46.8304
46.0186
33.4579
11.9022
-11.9772
-30.0216
-35.865
-27.5736
-8.40636
14.6509
33.8594
43.8
43.167
34.6112
22.9456
12.7559
6.59802
4.49753
4.71981
5.16358
4.55459
2.889
1.07967
0.182998
0.719581
2.43634
4.54273
6.19227
6.90104
6.69837
5.99206
5.282
4.90098
4.90503
5.13306
5.36981
5.51167
5.65335
6.06196
7.05847
8.86518
11.4896
14.6981
18.0911
21.2454
23.8548
25.8054
27.1558
28.0463
28.5945
28.8378
28.7454
28.2744
27.4206
26.2239
24.7296
22.9416
20.8155
18.309
15.463
12.457
9.59148
7.19169
5.47663
4.46323
3.95762
3.63952
3.19809
2.4552
1.42605
0.301998
-0.625372
-1.06426
-0.816169
0.156278
1.69972
3.49078
5.11593
6.20247
6.56323
6.29221
5.75025
5.42031
5.67885
6.58828
7.82599
8.81123
8.99092
8.15066
6.58448
5.01338
4.26782
4.87976
6.7913
9.34047
11.5466
12.5603
12.053
10.3487
8.23738
6.57658
5.89568
6.20494
7.08885
8.00298
8.58863
8.82671
8.96182
9.2691
9.82365
10.4185
10.6756
10.2748
9.15768
7.58775
6.03811
4.97714
4.66944
5.08587
5.9467
6.85428
7.44477
7.50502
7.03535
6.25972
5.58207
5.47793
6.32143
8.19039
10.74
13.247
14.8641
15.0061
13.6777
11.5307
9.55255
8.50373
8.40988
8.45964
7.47458
4.78187
1.00894
-1.75712
-0.74104
6.03181
18.2369
32.6225
43.8188
46.4518
37.6864
18.9592
-4.07769
-23.5667
-32.5993
-28.0897
-12.0258
9.48129
28.8659
40.2107
41.3593
34.1848
23.1119
12.8048
6.20927
3.78855
4.07079
4.95797
4.97505
3.8423
2.24546
1.13732
1.08241
2.00827
3.40165
4.71312
5.66372
6.2841
6.73384
7.08966
7.27646
7.17804
6.81818
6.45162
6.47664
7.21788
8.72819
10.7526
12.8901
14.8535
16.6576
18.6045
21.0637
24.1777
27.6774
30.9346
33.2357
34.1302
33.6568
32.3165
30.8037
29.6441
28.9376
28.3437
27.3114
25.4197
22.641
19.3846
16.3025
13.9648
12.5782
11.8903
11.3251
10.2756
8.40768
5.83043
3.05562
0.772183
-0.457557
-0.440932
0.569377
1.99669
3.19995
3.75168
3.60697
3.08698
2.68743
2.80676
3.52868
4.56892
5.415
5.59126
4.91695
3.62756
2.29686
1.59452
1.9916
3.54691
5.86469
8.23567
9.89847
10.3178
9.37934
7.43634
5.19204
3.45178
2.82118
3.45562
4.96818
6.56161
7.36571
6.8583
5.17846
3.15436
1.98252
2.66818
5.48223
9.71898
13.9156
16.4682
16.3643
13.6706
9.52167
5.60318
3.38191
3.46372
5.38942
7.94545
9.80241
10.1398
8.95078
6.91273
4.94762
3.74381
3.49824
3.98338
4.84511
5.91147
7.3054
9.29152
11.9641
14.9931
17.6214
18.9599
18.4363
16.1366
12.8127
9.50977
7.00636
5.40667
4.17691
2.66774
0.839724
-0.293731
1.08585
6.62072
16.4964
28.6036
38.7923
42.362
36.2364
20.7817
0.252197
-18.5585
-28.9883
-27.3093
-14.332
4.96959
23.6327
35.6285
38.1561
32.3171
22.0317
11.9153
5.24509
2.93882
3.82428
5.7916
7.06126
6.91241
5.65353
4.07935
2.87533
2.32771
2.40142
2.98541
4.04044
5.52714
7.20866
8.54607
8.84688
7.63732
5.04353
1.92066
-0.403764
-0.681148
1.68283
6.32631
12.0584
17.348
20.9295
22.2436
21.5424
19.6648
17.6424
16.334
16.2217
17.3857
19.5839
22.3461
25.0441
26.9634
27.43
26.0054
22.6932
18.04
13.0316
8.77307
6.06322
5.0574
5.19728
5.46992
4.89478
3.01323
0.142123
-2.73748
-4.40725
-3.95141
-1.1574
3.39647
8.58194
13.1526
16.1593
17.1833
16.3353
14.0914
11.0888
7.98211
5.38203
3.82405
3.70014
5.13243
7.84364
11.1274
14.0009
15.5341
15.2398
13.3432
10.7729
8.83309
8.67077
10.7664
14.6855
19.2188
22.8607
24.4148
23.4567
20.4532
16.5047
12.85
10.3704
9.31037
9.30627
9.66697
9.74405
9.2175
8.19116
7.09407
6.46321
6.70927
7.9459
9.92176
12.0625
13.6132
13.8595
12.3843
9.28362
5.24485
1.40991
-0.982367
-1.07204
1.21954
5.06624
9.00586
11.5401
11.8257
10.1275
7.77455
6.57668
7.93192
12.0496
17.7047
22.7102
24.9291
23.3427
18.6067
12.757
8.16749
6.29484
6.92146
8.38467
8.74596
7.27914
5.37699
6.19788
13.0327
27.1378
46.2196
64.5713
75.0879
72.3858
55.5713
29.2274
1.97709
-16.8589
-21.0343
-9.86701
11.6641
35.1891
52.4681
58.5468
53.227
40.4217
25.9606
15.014
10.2856
11.5759
16.5968
22.399
26.6574
28.3208
27.5492
25.2005
22.2456
19.4
17.053
15.4018
14.6148
14.8849
16.3304
18.8098
21.7814
24.3283
25.3963
24.1756
20.4669
14.845
8.51339
2.88258
-0.949439
-2.58024
-2.37499
-1.20924
-0.0273379
0.557196
0.436142
-0.0912303
-0.589328
-0.758032
-0.563474
-0.189791
0.120024
0.21864
0.116766
-0.0614406
-0.179068
-0.170978
-0.0658339
0.0532127
0.112065
0.0903224
0.0242155
-0.026165
-0.0201053
0.0370407
0.0980791
0.105378
0.0309621
-0.0986278
-0.210228
-0.225435
-0.115426
0.0644949
0.189901
0.135463
-0.136055
-0.520918
-0.806106
-0.788524
-0.423296
0.0955954
0.400992
0.165579
-0.636408
-1.57778
-1.86794
-0.695255
2.31826
6.78788
11.5735
15.1792
16.3905
14.849
11.267
7.15283
4.16425
3.39825
4.95726
7.985
11.1246
13.1493
13.4598
12.2445
10.2915
8.60101
7.99997
8.89895
11.2218
14.4641
17.8287
20.4237
21.522
20.845
18.7605
16.2516
14.5881
14.785
17.1002
20.8592
24.7581
27.5269
28.596
28.3683
27.9032
28.1779
29.3785
30.6911
30.7743
28.6503
24.4439
19.4423
15.3613
13.2426
12.73
12.3163
10.5681
7.636
6.00913
9.75112
22.2939
43.8154
69.7166
91.3745
99.2532
87.1631
55.657
12.7609
-28.5904
-55.4551
-59.9837
-42.4245
-10.7128
23.0737
47.6864
56.8502
50.8805
35.3826
18.0066
4.98004
-1.02069
-0.976109
2.01091
4.80904
5.78481
5.15482
4.27904
4.52699
6.42976
9.51695
12.7727
15.3108
16.8262
17.6015
18.1593
18.8539
19.6906
20.466
21.0919
21.8402
23.3012
26.0502
30.2219
35.2797
40.1671
43.8021
45.6571
46.0881
46.1992
47.2843
50.1319
54.5655
59.4739
63.3155
64.8245
63.5472
59.9417
55.0263
49.8073
44.8164
39.9943
34.9381
29.3213
23.2169
17.1353
11.7808
7.69141
4.98261
3.33137
2.18731
1.07002
-0.215753
-1.5437
-2.58981
-3.01585
-2.60643
-1.31284
0.770635
3.4411
6.40079
9.27171
11.662
13.3066
14.2319
14.8345
15.7682
17.6305
20.5763
24.0773
27.0191
28.1668
26.8089
23.2464
18.8189
15.3749
14.3998
16.2314
19.7975
23.0614
23.9924
21.5807
16.3663
10.191
5.29042
3.19173
3.99138
6.38006
8.38327
8.41002
6.05317
2.23835
-1.32201
-3.04863
-2.29486
0.370975
3.5012
5.50242
5.37382
3.10477
-0.398867
-3.74748
-5.61045
-5.13973
-2.17181
2.76735
8.58354
13.83
17.0379
17.1637
14.0504
8.67338
2.93244
-1.07759
-2.06844
-0.312977
2.3822
3.68119
2.3236
-0.536702
-1.19026
5.14458
21.6737
47.4798
76.5618
99.3474
106.366
92.5638
60.1905
18.7073
-18.519
-39.3949
-37.8748
-16.1992
16.3446
47.467
66.8138
69.623
57.6927
37.6011
17.3347
3.00493
-2.9897
-1.88974
2.94206
7.98192
10.9959
11.4997
10.3221
8.74717
7.75753
7.69034
8.32136
9.18337
9.88044
10.2484
10.3451
10.349
10.4618
10.868
11.7445
13.2748
15.6277
18.8936
23.0137
27.7525
32.7475
37.6255
42.1317
46.2006
49.9272
53.4529
56.8338
59.9711
62.6471
64.6363
65.8113
66.1626
65.7134
64.3956
61.995
58.2467
53.055
46.7126
39.9545
33.756
28.9342
25.7519
23.7559
21.9783
19.4278
15.6256
10.8919
6.21432
2.75567
1.25804
1.66213
3.138
4.49708
4.75179
3.52719
1.13404
-1.68528
-4.15387
-5.77022
-6.39408
-6.13125
-5.15791
-3.63069
-1.73161
0.225082
1.75486
2.31808
1.55616
-0.486117
-3.30312
-6.09962
-8.11979
-8.96485
-8.73241
-7.911
-7.10053
-6.71997
-6.8564
-7.31453
-7.80491
-8.13668
-8.2968
-8.38562
-8.4789
-8.53297
-8.41245
-8.02396
-7.4481
-6.94152
-6.75606
-6.85511
-6.71612
-5.41028
-2.01675
3.78382
11.2616
18.6641
23.8361
25.2128
22.6824
17.7849
13.0074
10.4533
10.6024
11.9669
12.0321
9.13224
4.22858
1.3935
6.34224
23.4138
52.4255
87.1973
116.936
130.291
120.422
88.6678
44.8534
3.80653
-20.5144
-20.6491
1.54185
36.0891
69.4693
90.2825
93.4515
81.2414
61.0342
41.3065
27.8969
22.2058
21.7941
22.6204
21.5071
17.579
12.1736
7.59111
5.57037
6.35077
8.71078
10.7923
11.1402
9.37201
6.1839
2.8004
0.254936
-1.07682
-1.46583
-1.4132
-1.13063
-0.262612
1.96097
6.21655
12.5193
19.9484
26.8732
31.6141
33.226
31.9993
29.3995
27.4485
27.831
31.1515
36.6882
42.7397
47.3757
49.228
47.9734
44.3361
39.6761
35.3945
32.4278
31.0081
30.7228
30.7844
30.37
28.9072
26.2337
22.6103
18.6021
14.8722
11.9518
10.0671
9.09327
8.65644
8.33932
7.88683
7.30314
6.78846
6.55714
6.6532
6.8843
6.92233
6.51095
5.64538
4.60155
3.78464
3.48578
3.69942
4.1199
4.32206
4.01242
3.19259
2.1368
1.20944
0.653058
0.489274
0.588661
0.841093
1.28582
2.09286
3.40292
5.14801
7.00406
8.54151
9.49694
9.987
10.5032
11.6588
13.8231
16.8634
20.1579
22.8843
24.4167
24.6052
23.7883
22.5546
21.4129
20.5603
19.8491
18.9222
17.3988
15.0142
11.7016
7.67195
3.52865
0.354727
-0.383568
2.75021
10.4696
22.0686
35.1441
46.0732
51.2459
48.621
38.8886
25.5847
13.9388
8.83917
12.7839
24.7501
40.529
54.3984
61.3879
59.1396
48.5946
33.3126
17.8505
5.99332
-0.414146
-1.66158
0.491828
3.87833
6.84394
8.68338
9.53886
9.96209
10.4341
11.0768
11.6469
11.7563
11.1781
10.0763
9.03537
8.85011
10.1392
12.9516
16.5827
19.7645
21.226
20.4029
17.9205
15.507
15.2493
18.4704
24.8007
32.0161
36.884
36.7194
30.9043
21.5376
12.7627
8.98651
12.8182
23.7524
38.2826
51.4095
58.8036
58.566
51.7745
41.6526
31.8931
25.0336
21.647
20.6051
20.0939
18.7298
16.188
13.1141
10.5107
9.03927
8.64441
8.66187
8.28164
7.06141
5.19746
3.41994
2.58516
3.18469
5.02279
7.22946
8.62145
8.26133
5.96065
2.47507
-0.7416
-2.158
-0.898268
2.76679
7.44745
11.2252
12.5617
11.0908
7.8744
4.94969
4.34917
7.06711
12.5013
18.6783
23.175
24.2812
21.8112
17.1446
12.4771
9.67908
9.37222
10.7129
11.9907
11.7011
9.48846
6.42195
4.43462
5.22214
9.20972
15.1723
20.7434
23.5571
22.4128
17.8274
11.6736
6.11765
2.46696
0.603865
-0.650671
-2.44776
-4.76044
-5.93375
-3.34466
5.05111
19.0802
35.5904
49.1784
54.2727
47.6878
30.4186
7.71162
-12.7614
-23.8906
-21.9574
-8.04823
12.5426
32.5803
45.7573
48.9021
42.6845
30.7275
17.7408
7.61033
2.22696
1.35913
3.36284
6.22036
8.40005
9.25258
8.93818
8.06931
7.2997
7.02916
7.29506
7.84076
8.30282
8.43212
8.25465
8.09344
8.42578
9.63051
11.7504
14.4078
16.9467
18.7532
19.5969
19.8059
20.1587
21.5258
24.4288
28.7418
33.6931
38.1767
41.2233
42.402
41.9593
40.6389
39.2856
38.4439
38.1492
38.0033
37.4673
36.192
34.1969
31.8018
29.37
27.0322
24.5768
21.5898
17.7739
13.2546
8.67727
5.00689
3.11507
3.36357
5.40512
8.30743
10.9347
12.3917
12.3182
10.9222
8.78267
6.56467
4.79549
3.77696
3.60787
4.23561
5.47492
6.99884
8.36056
9.09907
8.91694
7.84374
6.27493
4.83108
4.08761
4.31263
5.35906
6.77359
8.05881
8.93438
9.4469
9.87423
10.4969
11.3871
12.3452
13.0144
13.0913
12.4971
11.4156
10.1971
9.21174
8.75013
9.00819
10.1114
12.1003
14.8404
17.9149
20.6152
22.1223
21.843
19.732
16.3804
12.7569
9.70452
7.48878
5.7258
3.81564
1.67332
0.278529
1.56403
7.49085
18.6699
33.2894
47.1137
54.8528
52.4612
39.3084
19.0542
-1.41021
-14.6538
-15.8561
-4.9271
13.4513
31.908
43.5952
44.9981
37.0594
24.2187
12.0075
4.48442
2.7428
5.05162
8.30829
9.87341
8.80551
5.97759
3.22165
2.12811
3.19749
5.72791
8.35968
9.86414
9.71688
8.20653
6.13125
4.34006
3.39222
3.46803
4.48722
6.28723
8.72852
11.6869
14.9867
18.3624
21.498
24.1287
26.1395
27.6013
28.7218
29.744
30.8433
32.0665
33.3248
34.4278
35.1352
35.2129
34.49
32.9129
30.5805
27.7413
24.7356
21.8904
19.4068
17.2897
15.3595
13.3496
11.0472
8.41436
5.6315
3.04287
1.02974
-0.131778
-0.368829
0.168991
1.16704
2.24824
3.07965
3.45155
3.31609
2.7873
2.1092
1.59628
1.54954
2.15904
3.41892
5.09225
6.7585
7.9475
8.32063
7.82415
6.7349
5.55901
4.81379
4.78935
5.40869
6.26465
6.82404
6.69976
5.85156
4.61138
3.52237
3.07897
3.50344
4.66519
6.16627
7.53004
8.39212
8.61647
8.3176
7.81562
7.55638
8.00254
9.48416
12.02
15.1782
18.0872
19.6755
19.1053
16.2151
11.7151
6.95673
3.3225
1.53727
1.31339
1.6102
1.43784
0.759703
0.889131
3.98063
11.723
23.8812
37.5737
47.9096
49.9301
41.0403
22.7134
0.479953
-18.0004
-26.0193
-20.6586
-4.05068
17.54
36.3773
46.4069
45.4779
35.7253
22.1264
10.073
3.15153
2.06714
4.98815
8.89647
11.1491
10.5149
7.34719
3.02305
-0.90649
-3.39026
-4.11271
-3.31679
-1.44163
1.16114
4.28353
7.71583
11.0563
13.654
14.7735
13.9291
11.2173
7.45446
4.00088
2.30754
3.36386
7.29173
13.279
19.8958
25.6593
29.5956
31.5466
32.0964
32.1711
32.523
33.3565
34.2729
34.5439
33.556
31.1856
27.9072
24.5819
22.0406
20.6829
20.2982
20.1955
19.5638
17.8714
15.102
11.7234
8.43217
5.82663
4.17942
3.4032
3.18565
3.18455
3.16668
3.03814
2.79665
2.47919
2.15678
1.96507
2.10991
2.79387
4.07276
5.72507
7.24279
7.99942
7.54374
5.87307
3.52262
1.3897
0.353079
0.867166
2.73788
5.20093
7.27026
8.1873
7.7533
6.39054
4.91546
4.14429
4.52195
5.93946
7.80566
9.32061
9.81541
9.00968
7.08941
4.59395
2.18052
0.375622
-0.586566
-0.787723
-0.524129
-0.14336
0.102113
0.126226
-0.00909291
-0.173348
-0.256634
-0.223323
-0.112367
0.00266802
0.0627503
0.0528234
-4.91125e-005
-0.0515572
-0.0689008
-0.0465606
-0.0033511
0.0333175
0.0445245
0.028881
0.000563434
-0.0204852
-0.0200736
0.00263522
0.0346051
0.0555972
0.0491978
0.0130633
-0.0374162
-0.0756433
-0.0789975
-0.0451594
0.000933788
0.0167994
-0.0331622
-0.151103
-0.294607
-0.392954
-0.387434
-0.275293
-0.128817
-0.0692365
-0.198101
-0.515426
-0.869038
-0.972177
-0.497052
0.786482
2.88598
5.5358
8.25321
10.4873
11.8039
12.0303
11.3006
9.98376
8.52912
7.30071
6.47411
6.04031
5.90903
6.05478
6.62542
7.94713
10.4074
14.259
19.4346
25.4682
31.5815
36.9202
40.8497
43.1816
44.2214
44.6008
44.9628
45.6404
46.4885
46.9561
46.3739
44.3154
40.8426
36.5007
32.0538
28.1001
24.7821
21.7642
18.5059
14.6821
10.4972
6.68585
4.16419
3.50973
4.57331
6.47479
8.02225
8.33876
7.33677
5.74688
4.6612
4.84565
6.23126
7.90463
8.62639
7.58313
4.92429
1.75062
-0.456807
-0.643254
1.2442
4.2419
6.91286
8.1218
7.59629
5.9769
4.37332
3.72454
4.34213
5.86464
7.58117
8.87199
9.48596
9.5252
9.21795
8.68598
7.88061
6.71143
5.24022
3.76804
2.7282
2.44627
2.92956
3.83417
4.64001
4.9275
4.58739
3.84534
3.10771
2.74701
2.971
3.84475
5.41464
7.8017
11.1467
15.3984
20.0701
24.1631
26.401
25.756
22.0459
16.2684
10.398
6.61427
6.25711
9.03581
13.0021
15.4698
14.5562
10.5835
6.49301
6.8124
15.4478
33.2906
56.9132
79.2498
92.2282
90.2842
73.112
46.2351
18.9743
0.652948
-3.23251
6.88592
25.1926
43.3135
53.999
53.9309
44.4859
30.3597
16.9779
8.06348
4.45609
4.50361
5.53514
5.48531
3.83608
1.53807
0.149623
0.785619
3.46043
7.11031
10.191
11.4742
10.6235
8.2936
5.75796
4.28654
4.58526
6.54411
9.37786
12.0602
13.8302
14.5357
14.6662
15.0807
16.5748
19.499
23.6064
28.1897
32.4202
35.7088
37.9043
39.2415
40.0878
40.6482
40.8031
40.1739
38.3739
35.2936
31.2451
26.874
22.8811
19.7103
17.3768
15.5269
13.6855
11.5381
9.0838
6.58511
4.36688
2.61208
1.29112
0.264287
-0.526797
-0.928639
-0.618736
0.683984
2.96873
5.81347
8.49926
10.3198
10.9205
10.4715
9.56736
8.90402
8.91432
9.5682
10.4451
11.025
11.0167
10.526
9.96704
9.78251
10.1513
10.8705
11.4875
11.5992
11.132
10.4213
10.0307
10.4107
11.5971
13.1334
14.2717
14.3477
13.1228
10.9071
8.40127
6.35284
5.21773
5.00222
5.34692
5.77755
5.96564
5.85897
5.63533
5.53926
5.71558
6.1313
6.60565
6.90237
6.82058
6.25257
5.22036
3.91576
2.73593
2.25971
3.1009
5.63406
9.69509
14.4378
18.5045
20.5209
19.7188
16.356
11.6478
7.17207
4.03343
2.27844
0.981825
-0.942846
-3.62882
-5.55644
-3.87659
4.16155
19.2893
38.8685
57.071
66.8505
63.0002
44.8779
17.3573
-10.6745
-29.7622
-33.7489
-22.2721
-0.724037
22.2585
38.5326
43.646
38.094
26.2805
13.9498
5.49596
2.4148
3.41794
5.82464
7.28244
6.88335
5.2383
3.70677
3.38639
4.47235
6.26975
7.72637
8.09278
7.32183
6.03337
5.13235
5.33039
6.82099
9.23736
11.8682
14.0014
15.2363
15.6443
15.7251
16.1848
17.6281
20.2917
23.9389
27.9689
31.6974
34.6691
36.8418
38.5398
40.2034
42.081
44.0444
45.6376
46.3237
45.7722
44.0104
41.3532
38.1781
34.7139
30.9939
27.002
22.889
19.0737
16.1133
14.3902
13.8114
13.7424
13.2684
11.6724
8.865
5.50176
2.69241
1.43931
2.10677
4.21322
6.66188
8.28378
8.40051
7.11308
5.18206
3.58682
3.01303
3.53728
4.65507
5.61075
5.83652
5.2653
4.3613
3.86281
4.37677
6.03516
8.38916
10.5983
11.8246
11.6382
10.2295
8.31499
6.77959
6.23374
6.71537
7.69543
8.38633
8.1881
7.02843
5.40856
4.12804
3.84083
4.68887
6.21505
7.60006
8.08886
7.37422
5.73831
3.89398
2.6277
2.43786
3.34102
4.91317
6.51193
7.55621
7.74476
7.14955
6.17816
5.43181
5.49549
6.70733
8.9767
11.7379
14.1024
15.1916
14.5169
12.2117
8.95827
5.61587
2.75625
0.410114
-1.7603
-3.91544
-5.46497
-4.92935
-0.516966
8.72938
21.8002
35.346
44.5307
44.9536
34.8269
16.3067
-4.84652
-21.3212
-27.1973
-20.4418
-3.77633
16.5047
33.2068
41.1482
38.997
29.3036
16.8915
6.51928
0.955502
0.271267
2.46585
4.89771
5.69781
4.49605
2.24653
0.419792
0.0937072
1.42602
3.70895
5.87323
7.10199
7.21651
6.66904
6.20644
6.428
7.48255
9.0439
10.5427
11.5054
11.8154
11.7731
11.9452
12.8972
14.945
18.0337
21.779
25.6267
29.0491
31.6941
33.4452
34.3916
34.7397
34.7091
34.4488
33.9961
33.2857
32.2013
30.6477
28.6131
26.1943
23.5733
20.9553
18.4995
16.2745
14.2589
12.3787
10.5597
8.76506
7.00921
5.35298
3.89566
2.77011
2.1311
2.11814
2.78614
4.02579
5.52269
6.80495
7.39359
7.01071
5.75006
4.1085
2.82915
2.59895
3.72849
5.9703
8.58092
10.6184
11.3487
10.5728
8.71716
6.64465
5.27671
5.20771
6.48751
8.65633
10.9883
12.8058
13.7133
13.6615
12.8562
11.5976
10.1505
8.70119
7.38547
6.33434
5.68115
5.51842
5.83541
6.48712
7.22741
7.7996
8.04317
7.96413
7.73269
7.60303
7.78254
8.3007
8.93725
9.26033
8.79211
7.26352
4.8565
2.29729
0.6939
1.11734
4.07251
9.11404
14.8523
19.436
21.346
20.1263
16.6407
12.652
9.87797
9.0146
9.3063
9.00412
6.56209
1.94416
-2.76613
-3.98602
1.62133
15.0633
33.7186
51.6952
61.9476
59.3314
43.1833
18.1122
-7.53001
-24.9204
-28.3358
-17.4019
2.97996
24.9225
40.9268
46.7666
42.6554
32.3765
21.0395
12.6858
8.86027
8.62966
9.74779
10.1581
9.01358
6.80336
4.72565
3.81442
4.35452
5.84877
7.44038
8.45964
8.76227
8.71152
8.88442
9.71698
11.2889
13.3288
15.388
17.0625
18.154
18.7213
19.0307
19.4426
20.276
21.6876
23.6044
25.7429
27.7204
29.221
30.1336
30.5793
30.7981
30.9526
30.969
30.5346
29.2779
27.0399
24.0656
20.9699
18.4606
16.9554
16.3166
15.8831
14.8132
12.5663
9.2533
5.64239
2.79558
1.52107
1.93797
3.39341
4.77985
5.08239
3.86568
1.45259
-1.27778
-3.34209
-4.10611
-3.51642
-2.02885
-0.318498
1.04669
1.80327
1.99787
1.85422
1.61434
1.4457
1.43468
1.62285
2.0281
2.62848
3.33629
4.00871
4.51352
4.81534
5.01591
5.30057
5.8075
6.50058
7.14204
7.40704
7.08847
6.26835
5.33535
4.81246
5.07671
6.12864
7.55143
8.69472
8.9881
8.21517
6.6046
4.70338
3.11779
2.26826
2.27223
2.9778
4.08428
5.2617
6.22238
6.76052
6.80202
6.47364
6.13903
6.32185
7.48572
9.74831
12.6955
15.4501
17.0171
16.7401
14.6
11.148
7.09598
2.84192
-1.69622
-6.73233
-11.9093
-15.7405
-15.752
-9.5436
3.60161
21.4313
38.688
48.7269
46.3096
30.319
4.96461
-21.3569
-39.255
-42.2232
-29.4002
-5.8947
19.4809
37.9708
44.3573
38.6169
25.1815
10.4171
-0.302978
-4.5522
-3.12487
1.15511
5.22198
7.18039
6.77671
4.96669
3.05653
1.97419
1.98911
2.85641
4.13803
5.44697
6.51412
7.14492
7.19607
6.6399
5.66942
4.73093
4.40526
5.16607
7.14224
10.0294
13.2165
16.0674
18.2059
19.6493
20.726
21.8374
23.2083
24.774
26.2596
27.3942
28.1162
28.6328
29.282
30.2696
31.4398
32.2347
31.9017
29.866
26.0816
21.1632
16.2071
12.366
10.3779
10.2733
11.3994
12.7334
13.3208
12.6279
10.6682
7.892
4.94644
2.44092
0.805199
0.239086
0.701795
1.903
3.31493
4.26526
4.14623
2.69027
0.177418
-2.57324
-4.48409
-4.67441
-2.8725
0.436975
4.22075
7.35681
9.10385
9.34032
8.4769
7.13962
5.84188
4.8375
4.19916
4.00104
4.4181
5.63059
7.58817
9.82189
11.4947
11.7378
10.1205
6.97883
3.37441
0.65315
-0.187712
1.01254
3.50944
6.05093
7.52769
7.52067
6.44993
5.25731
4.82037
5.44381
6.72293
7.85108
8.17943
7.68462
7.04915
7.28509
9.1068
12.4216
16.2572
19.2004
20.1169
18.7391
15.767
12.4067
9.62597
7.60808
5.79859
3.58064
1.17893
0.153655
2.9888
11.7747
26.5807
44.4551
59.8253
66.42
60.0066
40.6793
13.4881
-13.094
-30.3411
-32.7268
-20.1078
2.34515
26.4061
44.174
51.0384
46.9835
35.8373
23.0493
13.1781
8.24827
7.56141
8.77112
9.46848
8.41622
5.90695
3.25737
1.88184
2.50914
4.91149
8.16689
11.1918
13.2041
13.9048
13.3885
11.9488
9.95702
7.87795
6.33528
6.0798
7.7745
11.6603
17.2943
23.5656
29.0627
32.6629
34.0588
33.9296
33.6338
34.5543
37.4257
41.9909
47.1614
51.5691
54.1856
54.6611
53.2256
50.2799
46.0043
40.2877
33.0492
24.7219
16.5106
10.1375
7.11118
7.89374
11.4789
15.7085
18.2408
17.6842
14.2747
9.70388
6.17818
5.22411
6.89687
9.8122
11.9497
11.7518
8.90872
4.43711
0.0766612
-2.60827
-2.92789
-1.24803
1.34805
3.65828
4.89325
4.9268
4.23667
3.63668
3.93166
5.5927
8.52486
12.0073
14.8871
16.0361
14.9329
12.0798
8.95305
7.37721
8.5509
12.2357
16.6376
19.186
17.8976
12.6027
5.29422
-0.702446
-2.3703
1.42399
9.31261
18.1427
24.6392
27.0746
26.0072
23.7062
22.6678
24.144
27.5515
31.0443
32.7949
32.1222
29.7678
27.2362
25.75
25.5937
26.2818
27.3365
28.968
32.0015
36.9769
43.0687
47.7779
47.9447
41.714
30.2487
17.8823
10.2191
11.0197
19.7017
31.2019
38.6781
37.7502
29.7837
21.9698
23.6634
40.6982
70.8583
103.375
123.261
118.603
87.1035
38.3264
-9.78771
-38.6164
-37.0667
-6.35094
40.8521
86.2399
113.782
115.98
95.8956
64.5297
35.2862
18.2708
16.8482
27.4998
42.4473
53.4543
55.0625
46.1316
29.498
10.3595
-5.68552
-14.1787
-12.6084
-0.602495
20.1859
46.2963
72.8362
94.2414
105.567
104.118
90.8371
70.7096
51.6926
42.2859
48.5405
71.6755
107.315
146.714
179.528
197.095
195.077
174.659
142.068
106.692
78.4071
64.7874
68.904
88.3068
115.596
140.584
153.493
148.133
123.852
85.4992
41.4463
0.618736
-30.13
-47.2701
-50.2932
-40.5421
-20.1967
7.93759
39.9918
70.7433
94.2682
105.667
103.108
88.9867
69.3199
51.4882
41.4058
41.5641
50.8603
66.0436
83.6837
101.387
117.651
130.805
138.17
136.436
123.377
99.9246
71.1426
45.0871
29.7291
29.3387
42.2361
61.2456
76.8138
81.336
72.5561
54.3662
34.6737
21.5085
19.3888
27.7164
41.8066
55.7353
65.3082
69.5655
70.2297
69.7499
69.3598
68.4169
65.3607
59.5164
52.3861
47.3847
47.9893
55.3636
66.9815
77.3051
80.4047
73.2277
57.7203
40.5095
30.1005
32.8688
49.8131
75.7092
101.148
116.532
116.17
100.576
75.9699
51.2996
34.2596
28.1877
31.2229
37.9734
42.716
42.4487
38.2699
34.4694
35.9167
45.1886
60.9607
78.4588
91.6589
96.03
90.4221
77.2723
61.2501
47.2407
38.7274
37.1822
42.3532
52.8611
66.5565
80.5566
91.3595
95.5227
90.9772
78.4123
61.8029
47.3999
41.3183
46.756
62.2863
82.2477
99.1958
107.262
104.745
94.659
83.0355
75.9605
76.8735
85.393
98.0049
109.972
117.344
118.156
112.571
102.349
90.1986
79.2968
72.8245
73.1734
80.7899
93.1728
104.9
109.3
101.477
81.365
54.9801
32.6575
24.5531
35.3908
61.2383
90.3957
108.453
105.268
80.3335
43.5886
10.9898
-3.08402
7.21242
36.4128
70.5208
93.8643
96.5123
78.6035
49.6715
23.6325
12.144
19.5618
41.6308
68.0876
87.588
92.5841
82.1469
61.8468
41.074
29.0664
31.2316
47.1016
70.631
92.6987
104.853
102.791
88.0948
67.3892
49.2476
40.2414
42.0233
50.8871
60.0107
63.1991
58.1452
47.4808
37.1013
32.7351
36.6832
46.536
56.5625
60.9945
57.4105
48.3957
40.5897
41.5841
56.1768
83.7305
117.787
148.052
163.907
158.127
129.544
83.8332
32.1809
-11.8507
-36.4289
-35.3208
-10.1809
29.781
70.9517
100.335
110.504
102.324
84.0901
67.3431
61.2597
68.307
83.2918
96.2347
97.5495
82.8587
55.0588
22.7788
-3.71735
-16.9229
-14.6162
0.379955
22.5229
46.2874
67.7769
84.6902
95.3185
97.8082
90.5645
73.6646
50.2324
26.5226
10.1439
7.01166
18.5309
40.5918
65.1023
83.4497
90.223
85.3445
73.5741
61.7314
55.1627
55.3295
59.7166
63.9367
64.6953
61.8405
58.3066
58.0268
63.104
71.9902
79.8614
81.0991
72.5372
55.6238
36.1898
21.8059
18.0491
25.6288
39.9115
53.1499
58.3226
52.6572
39.0598
24.7112
17.4864
21.9241
36.7098
54.9335
67.0818
65.4299
47.8078
18.9674
-11.1395
-31.434
-34.3047
-18.6558
9.90533
41.6971
67.0677
80.0444
79.9856
70.7896
58.4152
48.1308
42.7668
42.4787
45.6643
50.2096
54.3533
56.9544
57.4176
55.6545
52.2141
48.3689
45.8085
45.837
48.4158
51.7136
52.7049
48.7849
39.6517
28.3027
20.2657
21.0754
33.0966
53.4352
74.3929
86.719
84.3379
68.1523
46.6459
32.4498
36.1622
60.3948
97.2654
131.049
145.116
129.937
88.1925
34.2561
-11.8485
-33.1917
-23.1959
11.9522
56.6081
92.7854
107.538
97.3333
67.9789
30.9108
-1.85708
-21.7699
-25.4799
-14.4292
6.72676
31.8291
54.588
69.7077
73.9728
67.1808
52.4334
35.2861
21.761
15.9407
18.2995
25.6972
33.139
36.4252
34.2911
28.895
24.4378
24.7348
31.1275
41.875
53.2855
61.8534
66.143
67.3753
68.4661
72.1482
79.2757
88.2384
95.7502
98.5316
94.9866
86.0521
74.8675
65.4787
61.1817
63.1933
70.1536
78.6398
84.5229
84.7049
78.5905
68.6526
59.708
57.0173
63.8967
79.8889
100.441
118.415
126.871
121.897
104.148
78.407
51.4533
29.362
15.5479
10.3299
11.8867
17.7625
25.9672
35.2003
44.4283
52.459
58.031
60.4162
60.0351
58.5061
57.9389
59.8563
64.4421
70.6247
76.9393
82.568
87.8316
93.792
101.242
109.787
117.644
122.314
121.689
114.949
102.79
87.0157
69.8907
53.6669
40.3942
31.7921
28.9048
31.5415
37.8751
44.6983
48.52
47.1008
40.5848
31.4736
23.3296
18.9185
18.9305
22.1033
26.6432
31.9001
38.9738
49.5938
63.8714
78.5345
87.2707
83.6223
65.1505
36.3879
8.34503
-5.91187
2.2614
31.9797
72.1928
106.406
120.666
110.696
84.249
57.1801
45.1412
55.2754
82.3852
111.679
126.646
117.859
88.0192
50.6627
23.2958
18.6306
38.3987
72.7079
104.974
119.736
109.491
77.5157
35.7908
-0.52263
-19.2911
-15.6248
7.31576
40.6959
74.0898
99.3849
113.052
116.24
113.12
108.48
105.691
105.773
107.675
109.361
109.012
105.809
100.098
93.1192
86.5999
82.4122
82.2427
87.1188
96.7789
109.174
120.574
126.587
123.868
111.754
92.867
72.1645
54.81
43.9683
39.7741
40.0199
42.0233
44.357
47.2508
51.4645
56.6209
60.5083
60.2351
54.6939
46.5541
41.9304
47.2331
64.7164
89.562
110.888
116.893
101.645
69.5679
34.5301
13.41
17.3137
45.3203
84.4842
116.386
126.745
112.766
84.1194
57.1013
45.4327
53.0064
72.6296
91.1957
97.9506
90.8359
77.2293
68.8796
74.3083
93.3496
117.06
132.925
132.135
114.616
88.9662
67.5428
59.7108
67.1364
83.5684
98.8497
104.581
98.2469
83.8517
69.2953
62.3707
67.5976
85.0875
111.22
140.071
164.706
178.245
175.196
153.361
115.762
71.2418
32.555
11.9497
15.9501
42.0114
79.1765
112.873
131.627
132.198
120.32
106.643
100.184
103.065
109.597
110.204
97.8532
73.1342
44.8687
25.748
25.3712
44.6245
74.6388
101.031
111.2
100.761
75.6995
49.1467
34.5914
39.1742
60.5587
88.8449
112.251
123.331
122.348
116.122
113.237
118.488
129.821
139.56
139.247
125.33
102.394
81.87
76.6705
94.4232
132.887
180.082
219.268
236.406
226.432
195.272
156.67
125.514
111.035
113.211
123.988
132.437
130.982
119.39
104.471
95.7352
99.4052
114.104
130.665
136.395
121.763
86.0926
39.2195
-2.01384
-20.9658
-8.75675
31.4472
85.5297
134.432
162.272
162.831
141.52
112.167
90.3668
86.564
101.92
128.484
153.176
163.526
152.702
121.96
79.9453
39.4203
12.7581
7.71507
24.7792
56.9304
91.9999
117.008
123.059
108.896
81.4935
53.132
36.0167
36.7723
53.4331
76.4555
93.322
94.473
77.6213
48.383
17.1138
-6.20761
-16.3458
-14.3516
-5.88916
2.33644
5.93775
4.32737
-0.0596638
-3.91075
-5.09772
-3.5579
-0.793168
1.39091
1.9958
1.18458
-0.134462
-1.04779
-1.16919
-0.696043
-0.087386
0.32011
0.481118
0.535152
0.579315
0.540328
0.256083
-0.310418
-0.923366
-1.15571
-0.690763
0.355454
1.35621
1.47823
0.244387
-1.99806
-4.0793
-4.60849
-2.90567
0.308455
3.01137
2.90442
-1.08674
-7.69975
-13.4004
-13.8213
-5.96037
10.0156
30.4285
49.5314
62.0815
65.7256
61.9592
55.1901
50.4634
51.0764
57.2684
66.4817
74.8209
78.8071
76.5887
68.279
55.6303
41.4655
29.1153
21.8044
21.8275
29.585
42.9235
57.3749
67.5669
69.3957
61.9376
48.0062
32.8897
21.8155
17.475
18.967
22.7265
24.851
23.4297
19.5264
16.317
17.0076
22.8395
32.3362
42.1124
48.6176
49.7308
45.3866
37.1381
27.2027
17.6796
10.2567
6.20739
6.25883
10.1599
16.259
21.6634
23.2959
19.5057
11.3146
2.3732
-2.59665
-0.115624
10.3377
26.2853
43.9071
60.2747
74.6022
87.6091
99.4613
107.924
108.447
96.7161
72.4125
41.7182
16.3892
9.03111
26.5608
65.3175
110.876
143.379
146.298
114.517
57.696
-2.97645
-43.4002
-46.7254
-10.5271
52.1466
118.22
164.091
175.137
151.349
106.921
64.119
43.9515
57.3752
100.52
155.889
199.165
209.047
176.168
107.432
23.8233
-47.5164
-83.6811
-74.5165
-25.7416
44.3783
112.972
161.362
180.944
174.116
150.785
122.899
99.8178
86.2201
82.4628
86.0733
93.0147
98.3027
96.5867
83.5549
58.2365
25.076
-5.95652
-22.2812
-13.9851
20.949
74.3925
130.487
171.972
187.431
175.84
146.173
112.516
87.4567
77.225
80.7224
92.2037
105.412
116.572
124.869
130.935
135.055
136.646
135.259
131.986
129.756
131.849
139.429
149.875
157.402
156.064
143.54
123.366
103.979
94.7381
100.925
120.477
144.382
160.732
160.485
142.021
112.169
83.1326
66.7446
68.8023
86.18
108.125
121.188
115.549
89.8194
52.0573
16.4566
-2.83559
2.04519
29.2596
68.2018
104.27
125.141
125.597
108.801
83.7876
60.7441
46.596
42.8754
46.4428
52.0931
55.3354
53.9683
48.1067
39.3034
29.7266
21.9098
18.8307
23.6268
38.4881
63.0179
93.052
121.012
138.159
138.006
119.282
86.8752
50.0979
18.9994
0.484579
-3.88526
2.54979
14.1785
26.3453
37.365
48.3252
61.043
75.6588
89.5572
98.457
99.0967
91.8087
81.1617
73.9102
75.1608
84.9503
97.4661
103.77
96.8082
75.933
48.159
25.0717
16.828
26.5384
48.3105
70.2481
80.8276
75.0376
56.7469
35.9808
22.8302
21.7158
29.4446
38.0736
40.5698
35.531
27.9045
25.2815
32.2496
46.5882
59.9437
62.7519
50.4157
26.856
3.09862
-8.4281
-0.615218
24.4599
56.6739
83.2225
95.0689
90.915
76.7832
61.9041
53.5839
53.9806
60.2732
67.5825
72.5018
75.038
78.0027
84.5532
95.626
108.891
119.781
123.858
119.071
106.67
90.4135
74.7096
62.805
55.9031
53.4213
53.9151
55.9382
58.3586
60.1629
60.174
57.1283
50.2097
39.7083
27.2782
15.4747
6.71911
2.26168
1.76492
3.7622
6.67465
9.69207
12.9178
16.7116
20.7808
23.819
24.1378
20.9781
15.5469
10.8222
9.92455
13.928
20.6285
25.4163
24.089
15.9692
5.10371
-1.77287
0.222421
9.77115
18.363
14.2159
-10.3433
-52.0995
-95.2787
-117.127
-98.8097
-36.2364
55.2864
145.838
203.453
208.47
162.431
86.9808
13.3971
-31.7915
-37.8534
-12.4117
24.9437
53.834
62.8851
53.3982
35.963
22.9267
21.415
30.5853
43.8795
54.1171
57.9778
57.2914
56.8167
60.3506
67.824
75.1784
76.9527
69.8483
55.0314
37.796
24.8307
20.7217
25.6957
35.8067
45.3318
49.9136
48.6589
44.1014
40.2113
39.732
42.4282
45.2253
44.0833
36.4674
22.9835
7.27469
-5.72413
-12.1842
-11.1465
-4.77956
2.89101
8.01947
8.66473
5.3989
0.646752
-2.75067
-2.94268
0.227134
5.4487
10.8476
15.0191
17.6727
19.6265
22.2343
26.5786
32.8333
40.0822
46.6608
50.8616
51.6982
49.408
45.478
42.1634
41.6628
45.2544
52.7204
62.2939
71.1738
76.4404
76.0477
69.5308
58.167
44.532
31.6233
21.8829
16.484
15.1269
16.3817
18.3965
19.6573
19.4927
18.1486
16.4536
15.2703
15.0047
15.3977
15.685
15.032
13.0234
9.95849
6.78711
4.6949
4.52064
6.29263
9.13731
11.6445
12.5417
11.3458
8.63979
5.78637
4.18835
4.47166
6.05379
7.39185
6.84769
3.74609
-0.957348
-4.82696
-4.93615
0.74079
12.2201
27.2657
42.1771
53.2581
58.2753
57.2331
52.1478
46.0023
41.4404
39.82
40.9904
43.7493
46.6119
48.4455
48.7008
47.2706
44.2227
39.6741
33.9051
27.58
21.8233
17.9685
17.0228
19.1178
23.2955
27.829
30.9814
31.8231
30.6523
28.7535
27.6098
28.0232
29.6911
31.5375
32.6211
33.0291
34.0819
37.5394
44.1406
52.3524
58.273
57.0944
45.6168
24.5348
-0.904338
-22.5667
-32.8834
-28.4651
-11.9736
8.88634
24.9154
29.7862
22.9958
9.86886
-1.37632
-3.94049
4.12254
19.0772
33.5753
40.3963
35.8571
21.2344
1.72739
-16.2053
-27.5953
-30.4748
-25.7027
-15.6394
-2.69547
11.4079
25.4785
38.2501
48.0291
53.015
52.1664
46.0391
36.9705
28.3421
23.2035
22.9379
26.6652
31.7086
34.9021
34.0876
29.0742
21.6176
14.482
10.0913
9.44284
11.7867
15.1582
17.4321
17.3371
14.9443
11.4467
8.41933
6.98505
7.31156
8.65145
9.8401
9.94876
8.74966
6.78494
5.05014
4.48541
5.53113
7.93965
10.894
13.3468
14.4174
13.6906
11.3224
7.94663
4.44218
1.65735
0.183575
0.238405
1.67142
4.06489
6.87709
9.57677
11.7374
13.0862
13.5212
13.1099
12.0754
10.7638
9.58707
8.94359
9.1343
10.2949
12.3613
15.075
18.025
20.7248
22.716
23.6869
23.5692
22.5685
21.0889
19.559
18.2292
17.0525
15.743
14.0179
11.905
9.91987
8.94349
9.78843
12.6408
16.7036
20.3256
21.6733
19.6863
14.8309
9.18662
5.69102
6.8068
13.2286
23.3018
33.5232
39.9659
39.9887
33.4155
22.611
11.415
3.45596
0.654454
2.60092
7.03273
11.0897
12.6808
11.3086
8.03329
4.71507
3.00197
3.58488
6.02756
9.14781
11.6645
12.7552
12.2895
10.7142
8.73962
7.02409
5.99407
5.81685
6.46085
7.76233
9.46168
11.2271
12.7056
13.617
13.8642
13.5978
13.1864
13.0871
13.6625
15.0238
16.967
19.0293
20.6404
21.3057
20.7563
19.0154
16.3713
13.2735
10.1941
7.49946
5.37193
3.80212
2.6501
1.748
1.00006
0.434594
0.181144
0.379727
1.06458
2.0834
3.10335
3.7169
3.61068
2.72281
1.30994
-0.119853
-0.991801
-0.893768
0.248203
2.12594
4.15741
5.7011
6.28655
5.76932
4.35787
2.51685
0.798223
-0.330959
-0.609369
-0.0257651
1.21011
2.75164
4.23052
5.3749
6.09633
6.50955
6.86475
7.40844
8.23406
9.20632
10.0204
10.387
10.2499
9.90008
9.88695
10.7341
12.5958
15.0517
17.1854
17.9459
16.6226
13.1854
8.30416
3.04021
-1.60771
-5.04149
-7.10719
-7.86715
-7.31181
-5.26999
-1.63888
3.18902
8.018
10.9768
10.1783
4.67565
-4.76547
-15.5576
-24.0429
-26.8728
-22.4326
-11.6509
2.21684
14.7729
22.1338
22.3514
16.0151
5.83707
-4.53656
-11.9415
-14.7575
-13.2512
-9.1707
-4.85868
-2.29191
-2.4094
-4.92252
-8.5956
-11.8278
-13.2965
-12.4371
-9.60827
-5.9061
-2.70486
-1.10044
-1.47331
-3.34995
-5.6258
-7.0576
-6.80741
-4.79005
-1.66542
1.51058
3.79406
4.76226
4.627
4.0197
3.59164
3.66251
4.10609
4.5128
4.50674
4.01317
3.31684
2.88768
3.09353
3.98245
5.26616
6.50774
7.39299
7.9197
8.39665
9.26221
10.838
13.1624
15.9911
18.9475
21.7239
24.2129
26.5037
28.7577
31.0396
33.198
34.8506
35.4851
34.642
32.1234
28.1612
23.4776
19.1795
16.4757
16.2758
18.8171
23.4928
29.0063
33.8301
36.7858
37.4719
36.3198
34.2489
32.1107
30.2393
28.3654
25.9363
22.6365
18.7741
15.2728
13.2471
13.3913
15.5375
18.6451
21.2442
22.1024
20.7678
17.72
14.0795
11.0542
9.41224
9.22399
9.95093
10.7798
11.0026
10.2604
8.57466
6.21305
3.51197
0.775367
-1.6997
-3.51082
-4.0553
-2.5617
1.69993
9.07198
19.1604
30.6586
41.4878
49.2886
52.1503
49.3346
41.6918
31.5435
21.9868
15.8245
14.5258
17.6744
23.2015
28.3738
31.1337
31.1645
30.1095
30.7367
35.3627
44.282
55.0455
63.1098
63.7326
54.3411
36.2548
14.8327
-2.22483
-7.82854
1.5288
24.1308
53.548
81.18
99.7605
106.267
102.899
95.6591
91.2192
93.5993
102.319
112.977
119.975
119.977
114.217
108.312
109.519
122.717
147.241
176.292
199.47
207.33
195.777
168.152
133.928
104.643
89.0114
89.5643
102.288
119.242
132.64
138.273
136.674
131.716
127.768
127.205
129.687
133.445
137.458
142.82
152.049
166.469
183.222
194.099
187.622
154.072
91.2356
7.8096
-77.8483
-143.725
-172.542
-158.714
-110.554
-46.6052
12.1688
50.6238
64.3532
59.3418
47.1317
38.3897
38.2326
45.3576
54.779
62.085
66.5618
71.4789
81.6083
99.6315
123.622
147.093
161.656
160.951
143.907
115.759
86.3533
66.4772
63.7927
79.9995
110.304
145.313
174.565
190.323
190.22
177.795
160.734
147.533
143.896
150.315
161.864
170.284
167.528
149.24
116.669
76.2075
36.816
6.51562
-10.47
-14.7456
-10.6847
-3.99838
0.793834
1.84401
-0.0727712
-2.79637
-4.34793
-3.96666
-2.2093
-0.288019
0.799975
0.801236
0.158996
-0.451647
-0.622436
-0.410321
-0.155447
-0.111886
-0.198971
-0.0734647
0.52686
1.43821
2.02969
1.57942
-0.130697
-2.42458
-3.92418
-3.36012
-0.574618
2.98151
4.78747
2.74937
-3.14627
-10.1736
-13.9737
-11.1607
-2.02592
8.52297
12.9571
5.555
-12.9803
-33.6424
-41.8634
-24.309
23.4087
92.3407
162.14
209.161
217.122
184.975
127.781
69.8572
33.5595
29.3626
52.1691
85.4068
110.341
115.46
101.161
77.8411
59.2183
55.015
66.9324
89.4844
114.309
134.85
148.655
156.499
159.716
158.09
149.963
134.406
113.727
94.2508
84.3891
90.7863
114.635
150.264
186.861
212.504
218.526
202.223
166.999
120.389
71.314
27.8946
-3.55487
-18.6384
-14.8328
8.14254
47.5679
97.1637
147.471
187.557
207.786
202.796
173.58
127.77
77.7768
37.2196
16.7109
20.4489
44.9066
80.2353
113.96
135.557
140.059
129.187
109.636
89.4855
74.5521
66.4567
63.1388
61.2074
58.5534
55.6574
54.942
58.7559
67.3896
78.4263
87.8462
92.2032
90.5602
85.0497
79.7543
78.5505
83.0744
91.8282
100.792
105.167
101.417
88.7361
69.4342
48.1454
30.2164
19.8558
18.7017
25.3364
35.966
46.041
52.1761
53.5249
51.9439
50.8131
53.0563
59.3599
67.5655
73.6533
73.9016
67.1258
55.7601
45.061
40.6657
45.651
58.6193
73.9275
84.1438
83.6467
71.6027
52.7606
35.5456
28.303
35.507
55.7898
82.696
107.663
123.632
127.503
120.456
106.387
89.6817
73.6421
60.1933
50.5126
45.6678
46.5471
53.1148
63.7214
75.2807
84.5057
89.5255
90.7583
90.2957
90.0617
89.9597
87.4001
78.7903
62.2383
39.7577
17.3642
2.64816
0.995959
12.5936
32.0304
50.8667
61.8063
62.1679
54.7735
45.8806
41.4808
44.134
52.0609
60.7928
66.1827
66.892
64.9307
64.0868
67.3276
74.7796
83.4497
88.7885
87.1617
77.8662
63.6557
49.5733
40.7398
40.1926
47.7541
60.3657
73.6345
83.8227
89.3475
91.1065
91.4914
92.5949
94.5566
95.017
90.1541
76.9535
55.5899
30.5389
9.51244
0.391652
7.47368
28.9112
56.8151
80.2308
89.7242
81.4197
58.5499
29.8081
5.39094
-7.28394
-6.17706
5.45787
21.4151
35.6548
44.572
47.522
45.795
41.0295
34.1477
25.348
14.9229
4.15823
-4.40962
-7.64631
-3.08129
9.86892
29.3282
51.3154
70.8828
83.5968
86.8439
80.5537
67.1436
50.7235
35.8018
25.8878
22.4461
24.587
29.649
34.4939
37.0102
37.1637
37.0568
39.86
48.0076
61.4758
77.0398
89.0555
91.6271
81.3096
59.1059
30.6994
4.59431
-11.1787
-12.3851
-0.403144
18.3696
35.3128
43.3156
39.7136
27.0859
11.6249
-0.0176218
-3.7938
0.250374
8.65901
16.873
21.8097
23.3273
23.8871
26.7584
33.8805
44.6099
56.0033
64.3926
67.3022
64.6328
58.5208
52.0556
47.6542
46.0066
46.0994
46.1732
44.961
42.4724
39.9282
38.9783
40.725
45.1189
51.0122
56.7529
60.9284
62.8543
62.6148
60.7392
57.7741
54.0111
49.4985
44.3021
38.8609
34.247
32.1568
34.5347
42.8473
57.1978
75.6389
94.1098
107.282
110.24
100.471
79.3122
52.0962
26.6712
10.7342
9.00286
21.4275
43.2409
66.8422
84.7017
92.053
88.29
76.624
62.3287
50.4549
44.0007
43.1938
45.9883
49.3761
50.8568
49.4614
45.9977
42.5381
41.4522
44.4136
51.7531
62.3479
74.0043
84.1171
90.338
91.0574
85.649
74.5413
59.1979
42.0162
26.0587
14.5186
9.93407
13.3585
23.8354
38.5017
53.4109
64.8314
70.51
70.3636
66.2992
61.2631
57.9641
57.8393
60.6716
64.9339
68.6098
70.0764
68.685
64.8751
59.8644
55.1003
51.6865
49.9696
49.4184
48.8585
47.0227
43.2316
37.8886
32.4657
28.8443
28.2361
30.2442
32.7146
32.7049
28.2662
20.1227
12.1485
10.0173
18.3838
37.9286
63.954
87.6249
99.5992
94.4051
73.3
43.9646
16.9993
0.946785
-1.54811
5.61564
14.8521
19.5844
18.0647
14.1132
14.3827
23.8158
42.0599
63.0646
78.2115
81.2012
71.819
56.2752
43.763
41.0745
48.2951
58.0827
59.1068
41.9691
4.57988
-45.764
-94.6548
-126.097
-128.681
-99.7063
-45.7516
20.0578
82.4767
128.32
149.107
141.974
109.453
58.822
1.23823
-49.7176
-80.5493
-81.3311
-49.1969
9.73961
81.3768
147.743
192.943
208.557
196.161
165.857
131.54
105.131
92.3969
92.019
97.9232
103.272
103.941
99.8519
93.8908
89.4457
88.1856
89.3146
90.5068
89.7141
86.6117
82.793
80.6724
81.8567
86.0382
91.1017
94.3708
94.219
91.0536
87.066
84.8992
86.0524
90.0204
94.7287
98.0137
99.2041
99.7262
102.201
108.445
117.563
125.415
126.051
114.565
89.8933
55.9957
20.6347
-7.70967
-23.2232
-24.7061
-15.185
0.393112
17.9252
35.7702
54.4265
74.7106
95.786
114.422
126.037
126.953
116.506
97.7736
76.4554
58.5029
47.754
44.7276
47.0489
51.0898
53.8544
54.1581
52.6521
50.9036
50.1912
50.717
51.6163
51.6721
50.2598
47.94
46.3118
47.1385
51.1722
57.3258
62.7452
63.9174
58.4008
46.353
31.0101
17.7125
11.7836
16.2004
30.1754
49.3741
67.6979
79.7834
83.027
78.2211
68.6199
58.0411
49.0285
41.9688
35.487
27.7788
18.1189
7.77558
-0.095363
-1.5347
6.58821
25.009
51.1563
79.3008
101.872
111.684
104.423
80.5281
45.6212
9.10071
-18.8119
-30.5573
-23.9066
-2.69476
24.7282
48.7098
61.8405
61.3926
49.7473
32.8128
17.2719
7.89479
5.97594
9.36159
13.8322
15.113
10.6575
0.56485
-12.5979
-24.8807
-32.4618
-33.0113
-26.4337
-14.7686
-1.34333
10.455
18.2959
21.4944
20.9051
18.2631
15.3386
13.3015
12.5317
12.8471
13.9137
15.5529
17.7837
20.6378
23.9406
27.2554
30.0627
32.0706
33.4425
34.7682
36.7535
39.7854
43.6183
47.3763
49.89
50.2038
47.9884
43.6486
38.0834
32.2472
26.756
21.7434
17.011
12.3462
7.79055
3.69122
0.513299
-1.45117
-2.28038
-2.39191
-2.30001
-2.3154
-2.37953
-2.13894
-1.21002
0.538433
2.86897
5.30276
7.41047
9.08263
10.6094
12.5225
15.3015
19.1271
23.8217
28.9916
34.2522
39.3773
44.2812
48.87
52.8943
55.9325
57.537
57.4598
55.8189
53.1149
50.1064
47.6338
46.4706
47.2113
50.1358
55.022
60.9846
66.526
69.955
70.1198
67.118
62.4966
58.6245
57.3953
58.9434
61.2642
61.2666
56.948
49.5251
44.0508
47.6451
65.767
98.2868
137.636
170.566
183.275
167.747
126.21
71.2526
21.1869
-7.40732
-6.50776
20.3319
60.0936
96.3604
116.332
115.535
98.3515
74.6315
54.4928
43.9508
43.2378
48.0786
52.7415
53.0676
48.066
39.6587
31.1364
25.3562
23.5609
25.1602
28.2759
30.5895
30.0867
25.5212
16.6189
4.10638
-10.4027
-24.6862
-36.3622
-43.4192
-44.654
-39.8449
-29.6033
-15.0146
2.71492
22.4064
42.8065
62.3709
79.1762
91.153
96.6519
95.1344
87.6502
76.8049
66.117
58.94
57.3332
61.3274
68.8936
76.6597
81.1245
79.9174
72.628
60.8926
47.7158
36.3084
28.9112
26.0753
26.6649
28.5384
29.5722
28.5601
25.6004
21.8413
18.7612
17.3671
17.7085
18.9203
19.7312
19.1462
16.9425
13.7384
10.6324
8.63106
8.1756
9.00047
10.3539
11.4126
11.6359
10.8788
9.26436
6.98022
4.19818
1.19015
-1.48595
-2.97824
-2.48208
0.162093
3.99476
7.05488
7.30388
4.05493
-0.882616
-3.24005
2.06108
18.1054
43.3372
70.6524
89.2033
88.591
63.7606
18.2576
-35.9803
-82.5928
-106.994
-102.096
-70.9823
-25.3524
19.4522
50.5073
61.7488
55.0641
38.0019
19.6116
6.55279
1.13224
1.71882
4.77806
7.16751
7.53677
6.41682
5.35506
5.8351
8.59623
13.5384
19.9981
27.0504
33.6448
38.6404
40.9398
39.8426
35.5111
29.2601
23.3904
20.5132
22.607
30.2305
42.2623
56.2774
69.362
78.9893
83.617
82.8699
77.3953
68.5817
58.2782
48.5192
41.1779
37.5206
37.7791
40.9768
45.2076
48.3617
49.01
47.0087
43.4666
40.0467
37.9506
37.1473
36.3008
33.4726
27.2298
17.5471
5.99263
-4.91472
-12.8254
-16.5486
-16.3946
-13.7354
-10.0965
-6.33726
-2.39365
2.30376
8.0393
14.1786
19.132
21.0042
18.6044
12.2578
3.92835
-3.48802
-7.39943
-6.68566
-2.20409
3.6438
8.09346
9.36851
7.5257
4.36403
2.44297
3.71632
8.49164
15.2581
21.4672
24.843
24.5196
21.4052
17.6063
15.2659
15.4809
17.8905
21.1163
23.7279
25.1198
25.7714
26.7756
28.9914
32.4051
36.1293
39.03
40.5347
41.036
41.5679
42.9323
44.8743
45.9403
44.2625
38.8976
30.9093
23.4119
20.3265
24.3583
35.2414
49.2827
60.6242
63.7512
56.0735
39.2991
18.8774
1.72855
-6.68299
-4.57112
5.64516
18.6614
28.7363
32.0814
28.1361
19.292
9.39169
1.85122
-1.68859
-1.65576
0.16455
1.82968
2.26287
1.633
1.01644
1.63208
4.10443
8.12285
12.6129
16.2683
18.142
18.0154
16.4127
14.3073
12.6963
12.2368
13.0746
14.8928
17.1187
19.1848
20.7445
21.775
22.5439
23.4611
24.8734
26.8822
29.2635
31.532
33.1351
33.6941
33.1814
31.9413
30.5354
29.4813
29.0117
28.9746
28.9213
28.3346
26.875
24.5239
21.5622
18.4144
15.455
12.881
10.7025
8.83148
7.19842
5.82087
4.79118
4.20055
4.05155
4.21085
4.42702
4.40562
3.91163
2.86297
1.38371
-0.205076
-1.46497
-1.97694
-1.49522
-0.0578334
2.00273
4.16987
5.93782
7.00635
7.38111
7.3289
7.21213
7.29211
7.60639
7.98081
8.15815
7.95966
7.38362
6.58955
5.79004
5.12454
4.59278
4.08001
3.4469
2.62191
1.64313
0.637254
-0.236467
-0.837227
-1.06817
-0.885266
-0.309933
0.551744
1.50957
2.34549
2.93023
3.34556
3.91489
5.06471
7.03383
9.57066
11.8283
12.6124
10.9568
6.78109
1.26134
-3.38092
-4.69237
-1.08603
7.3073
18.5031
29.3769
36.9211
39.4362
37.0728
31.4864
24.8498
18.8054
13.9328
9.96608
6.52932
3.84647
2.92191
5.03861
10.8692
19.7566
29.6414
37.7398
41.6502
40.3234
34.424
25.945
17.3258
10.5307
6.49673
5.10374
5.54594
6.82756
8.13526
8.98454
9.18726
8.75373
7.8148
6.5798
5.29966
4.21019
3.46673
3.10694
3.06733
3.24229
3.5452
3.93539
4.40779
4.97301
5.65724
6.52125
7.6649
9.18174
11.068
13.1428
15.0586
16.4359
17.0739
17.1107
17.008
17.3246
18.3778
19.9883
21.4798
21.975
20.843
18.0519
14.2108
10.2643
7.00804
4.70761
3.04899
1.44522
-0.493617
-2.62476
-4.28758
-4.66712
-3.28557
-0.317435
3.47336
7.15261
10.1623
12.6972
15.7129
20.5659
28.4602
39.9422
54.6381
71.3111
88.2114
103.619
116.425
126.553
135.013
143.469
153.382
165.084
177.289
187.451
193
192.896
188.615
183.775
182.263
185.658
191.372
192.817
182.033
153.803
109.308
57.2669
11.5461
-14.0273
-11.4525
17.7486
62.7353
107.464
136.901
142.595
125.242
93.4057
59.2711
33.5564
21.7872
23.2491
32.5816
42.8638
48.6394
47.6741
41.0248
31.779
23.2687
17.5847
14.9209
13.8697
12.4183
9.16463
4.20213
-0.752618
-3.12032
-0.833346
6.30049
15.9755
23.9766
25.8821
19.1673
4.67478
-13.3808
-29.0232
-37.0625
-35.3725
-25.7832
-13.1538
-3.11419
0.385743
-3.46043
-12.4402
-22.7861
-31.0876
-35.6519
-36.7494
-35.8537
-34.4907
-33.401
-32.3895
-30.7676
-27.9656
-23.899
-18.9311
-13.5902
-8.34083
-3.60424
0.023067
1.61209
0.064106
-5.35655
-14.3582
-25.2379
-35.1182
-40.8451
-40.2139
-32.9597
-20.9962
-7.72373
3.32473
9.88726
11.7751
10.7106
9.31809
9.79725
12.9472
17.9862
23.171
26.7955
27.992
26.93
24.4071
21.1923
17.5926
13.522
8.97714
4.52936
1.41418
1.06082
4.28565
10.6297
18.282
24.715
27.7565
26.5665
22.0309
16.3824
12.2454
11.5561
14.8275
21.0263
28.0408
33.4951
35.5774
33.6062
28.1839
20.9329
13.9249
9.0005
7.20869
8.56411
12.2115
16.9227
21.7014
26.2096
30.812
36.2206
42.9359
50.7965
58.9032
65.996
71.1176
74.2309
76.4435
79.6523
85.6843
95.264
107.267
118.658
125.272
123.233
110.501
87.9141
59.2239
30.0124
5.86926
-9.45714
-15.1731
-13.3718
-7.86869
-2.51306
0.250914
-0.0192228
-2.14373
-4.32997
-5.21438
-4.42991
-2.53309
-0.494212
0.863458
1.16995
0.502387
-0.770522
-2.08595
-2.66236
-1.48545
2.48672
9.82214
20.0045
31.1091
40.1297
44.0156
41.0483
31.8915
19.6995
9.07742
4.26864
7.37549
17.453
30.921
43.1067
50.1957
50.6974
45.8024
38.5648
32.3834
29.5316
30.377
33.5425
36.8054
38.2277
36.9837
33.5594
29.3283
25.78
23.795
23.2907
23.3585
22.7845
20.6804
16.9241
12.2136
7.73161
4.59847
3.38366
3.90508
5.39226
6.90706
7.79521
7.94352
7.73414
7.75177
8.42107
9.77076
11.4344
12.8626
13.6118
13.549
12.87
11.9382
11.0474
10.2444
9.3151
7.94314
5.95952
3.54614
1.26826
-0.110938
0.0286631
1.81968
4.7344
7.69501
9.44974
9.06456
6.30972
1.75687
-3.46587
-8.14959
-11.4872
-13.3385
-14.1657
-14.6939
-15.4838
-16.6383
-17.7817
-18.3045
-17.7316
-16.0178
-13.6194
-11.3097
-9.83375
-9.57165
-10.3714
-11.6283
-12.5703
-12.6153
-11.6336
-9.99514
-8.38373
-7.4677
-7.5852
-8.59186
-9.93863
-10.9359
-11.0717
-10.233
-8.73306
-7.14541
-6.03588
-5.71877
-6.13953
-6.91941
-7.52923
-7.5164
-6.70047
-5.26752
-3.72236
-2.69696
-2.66548
-3.67186
-5.20641
-6.33714
-6.0968
-3.98069
-0.305779
3.80127
6.85244
7.70109
6.13178
2.98031
-0.331932
-2.60999
-3.54832
-3.78145
-4.20861
-4.96787
-4.75987
-1.13393
8.16996
23.4201
41.6783
57.097
62.9439
54.609
32.1731
1.14522
-29.2236
-49.4561
-53.6427
-41.7608
-19.4564
4.55637
22.1955
29.0768
25.6386
16.0533
5.72362
-1.26686
-3.56102
-2.34987
-0.0222557
1.43073
1.38187
0.533059
0.122226
0.987886
3.07135
5.57539
7.56859
8.5868
8.85267
9.02811
9.72612
11.1391
13.0235
15.0119
16.9862
19.2077
22.0731
25.6427
29.2781
31.6886
31.4482
27.7379
20.8939
12.4248
4.44421
-1.20505
-3.68639
-3.39987
-1.62776
0.172956
1.03774
0.79731
-0.0707307
-0.876644
-1.15228
-0.853429
-0.275225
0.202962
0.356654
0.205293
-0.0636581
-0.249376
-0.258924
-0.130844
0.0272552
0.125145
0.139311
0.103696
0.064596
0.0412998
0.0204469
-0.0185615
-0.0734732
-0.11205
-0.0958753
-0.017825
0.0769715
0.108139
0.0109913
-0.208924
-0.457299
-0.591637
-0.508238
-0.227755
0.0798083
0.165067
-0.154037
-0.84004
-1.57006
-1.81705
-1.06574
0.928375
3.96819
7.43461
10.5092
12.5056
13.1516
12.678
11.6695
10.7541
10.2961
10.2531
10.2635
9.90003
8.93071
7.43271
5.70202
4.03623
2.55119
1.16812
-0.214305
-1.49126
-2.25825
-1.97357
-0.323673
2.42922
5.37743
7.29691
7.2441
5.08177
1.58427
-1.99985
-4.69945
-6.40663
-7.85498
-9.90278
-12.5167
-14.1589
-12.1654
-4.16857
10.0771
27.5267
42.2384
47.4934
38.8428
16.6323
-13.3685
-41.7717
-59.1579
-59.8647
-44.2398
-18.3412
8.71492
28.4717
36.2141
32.1558
20.4671
6.89503
-3.75784
-9.18633
-9.72404
-7.37013
-4.43721
-2.53143
-2.20703
-3.20172
-4.90597
-6.73422
-8.26184
-9.19556
-9.32753
-8.56525
-7.01301
-5.0077
-3.03463
-1.53996
-0.739783
-0.538967
-0.608095
-0.569959
-0.184478
0.569875
1.54934
2.58045
3.58144
4.5914
5.69454
6.89529
8.03147
8.79014
8.83015
7.95238
6.22883
4.01969
1.86295
0.283989
-0.389259
-0.125226
0.834881
2.10101
3.29278
4.15922
4.61573
4.70162
4.50135
4.08254
3.48346
2.74555
1.95705
1.26858
0.862526
0.889898
1.41111
2.37623
3.65738
5.1156
6.66524
8.30141
10.0777
12.0484
14.2061
16.4457
18.5696
20.3312
21.5015
21.9377
21.6398
20.7772
19.6736
18.7399
18.3602
18.7579
19.8933
21.4443
22.9037
23.7713
23.7677
22.9705
21.7942
20.8062
20.4541
20.8322
21.6087
22.1544
21.8161
20.201
17.3354
13.6346
9.71925
6.19486
3.50543
1.90805
1.52188
2.35901
4.27686
6.88145
9.49045
11.264
11.5116
10.0384
7.31321
4.29226
1.93001
0.630871
-0.00152284
-0.882282
-2.70936
-5.18758
-6.75924
-5.18502
1.15829
11.8965
24.0354
32.6718
32.9526
22.4652
2.87336
-20.1567
-38.9093
-46.679
-40.5588
-22.6515
0.860449
22.3275
35.6854
38.5638
32.6113
22.1089
11.7355
4.62983
1.57124
1.4231
2.33932
2.95505
2.95848
2.89745
3.51947
5.13617
7.38402
9.44983
10.5471
10.3253
8.99396
7.14478
5.42885
4.28712
3.85624
4.04288
4.67024
5.59248
6.73018
8.0469
9.51787
11.1234
12.8602
14.7404
16.7572
18.8318
20.7829
22.3549
23.3075
23.5222
23.0661
22.1668
21.1059
20.0809
19.1081
18.0159
16.533
14.4294
11.6437
8.34217
4.88233
1.69586
-0.865981
-2.66629
-3.84178
-4.7556
-5.84994
-7.44783
-9.58641
-11.9643
-14.0458
-15.2928
-15.4256
-14.585
-13.3056
-12.2993
-12.1456
-13.0414
-14.731
-16.6495
-18.195
-18.9874
-18.9849
-18.4162
-17.5919
-16.7181
-15.817
-14.7861
-13.5374
-12.1128
-10.6968
-9.51509
-8.68466
-8.11009
-7.49364
-6.45877
-4.72109
-2.21483
0.889058
4.27497
7.62557
10.7318
13.5112
15.9368
17.937
19.352
20
19.8295
19.0672
18.2392
18.0013
18.823
20.6832
22.9694
24.691
24.9428
23.3887
20.4755
17.2181
14.6394
13.1954
12.5695
12.0334
11.2091
10.7449
12.362
18.0326
28.5796
42.4505
55.498
62.1866
57.8936
41.2963
15.6226
-12.0224
-33.1445
-41.1379
-33.8913
-14.5425
9.92606
31.557
44.4212
46.4658
39.5672
28.0303
16.4397
7.90162
3.34388
1.91558
2.01225
2.2794
2.13418
1.7146
1.48225
1.81315
2.8065
4.33907
6.23543
8.39347
10.7851
13.3652
15.9855
18.3939
20.3273
21.6389
22.3801
22.7864
23.1788
23.8328
24.8789
26.2726
27.8359
29.3437
30.6177
31.5952
32.352
33.0693
33.9525
35.1271
36.5533
38.0031
39.1241
39.5715
39.1521
37.9071
36.085
34.0138
31.9398
29.9219
27.8432
25.5306
22.9073
20.0799
17.3026
14.8361
12.7918
11.0627
9.39169
7.54436
5.48138
3.42481
1.77065
0.891439
0.935804
1.73268
2.84763
3.75641
4.04576
3.55013
2.3788
0.845468
-0.651476
-1.7496
-2.21682
-2.01214
-1.30822
-0.46281
0.0736284
-0.0944165
-1.15002
-2.96803
-5.14197
-7.14141
-8.53693
-9.18281
-9.25951
-9.14808
-9.20215
-9.54459
-10.0067
-10.2486
-9.99186
-9.22539
-8.25096
-7.52555
-7.37762
-7.76045
-8.20134
-8.00601
-6.63272
-4.04074
-0.810296
2.0581
3.58184
3.24537
1.21141
-1.82907
-5.07883
-8.06247
-10.7715
-13.4039
-15.8496
-17.2935
-16.3051
-11.5349
-2.73466
8.47974
18.7041
23.8683
21.0374
10.0537
-5.87999
-21.1403
-29.8642
-28.4193
-16.9947
0.468317
17.9851
30.0489
33.7644
29.64
20.8026
11.1921
3.73236
-0.638307
-2.75737
-4.18372
-6.02565
-8.31702
-10.1905
-10.6032
-9.09181
-6.09441
-2.70184
-0.0506046
1.24926
1.33642
0.901773
0.750597
1.40264
2.93314
5.08049
7.49136
9.92921
12.3397
14.7825
17.3175
19.9404
22.5964
25.2427
27.8939
30.6127
33.4566
36.4218
39.4272
42.343
45.0367
47.3998
49.3361
50.7287
51.4226
51.25
50.0983
47.9859
45.1018
41.7789
38.4041
35.3001
32.6266
30.3389
28.2155
25.9453
23.2401
19.9395
16.0756
11.8789
7.724
4.03073
1.15086
-0.721517
-1.58717
-1.61651
-1.07674
-0.244428
0.661302
1.50391
2.21497
2.76147
3.12079
3.27878
3.24633
3.07531
2.85337
2.67117
2.57656
2.54345
2.48
2.27931
1.88899
1.35928
0.836756
0.499858
0.468806
0.741911
1.1984
1.66836
2.02685
2.25177
2.40858
2.57682
2.77884
2.97316
3.12633
3.30807
3.7176
4.58313
5.9698
7.62372
8.99475
9.48446
8.80579
7.22263
5.46596
4.31172
4.05518
4.25303
3.99975
2.67455
0.72454
-0.10497
2.54034
10.1846
22.059
34.5562
42.2021
39.9635
25.8899
2.71645
-22.5823
-41.3281
-46.7178
-36.7845
-15.3082
9.78468
29.7703
38.64
35.1831
22.8239
7.52729
-5.04542
-11.7449
-12.624
-10.0854
-7.19481
-6.12309
-7.40936
-10.1819
-12.9747
-14.585
-14.554
-13.1662
-11.132
-9.21001
-7.94917
-7.58566
-8.0401
-8.95979
-9.80441
-10.0029
-9.17498
-7.33603
-4.95975
-2.81422
-1.60752
-1.60812
-2.45267
-3.27387
-3.10928
-1.38613
1.77881
5.63136
9.15663
11.5711
12.6591
12.7768
12.5441
12.4216
12.4289
12.1644
11.0993
8.95125
5.90229
2.52232
-0.553015
-2.992
-4.95367
-6.97062
-9.58813
-12.967
-16.683
-19.8476
-21.4929
-21.0196
-18.4734
-14.5113
-10.0894
-6.0464
-2.79798
-0.281987
1.8518
3.94312
6.09293
8.12442
9.73042
10.6953
11.0454
11.0371
11.0001
11.1435
11.4545
11.755
11.8819
11.8709
12.0197
12.7722
14.4782
17.1577
20.4064
23.5044
25.6799
26.402
25.5672
23.5064
20.8327
18.2156
16.1798
14.99
14.6291
14.8481
15.2641
15.4903
15.2815
14.6498
13.8853
13.4329
13.6477
14.5401
15.6682
16.286
15.7091
13.7092
10.6861
7.47248
4.85681
3.12313
1.94866
0.802659
-0.358441
-0.583445
1.9139
8.79734
20.2523
34.0238
45.6036
49.799
43.1341
25.9428
2.98041
-17.9927
-29.1979
-26.0902
-9.3479
15.3695
39.7943
56.4352
61.4076
55.4888
43.1021
29.9276
20.3989
16.2219
16.3941
18.4072
19.8095
19.3036
16.9701
13.7484
10.6584
8.25533
6.54999
5.29082
4.31276
3.68853
3.61126
4.14153
5.03565
5.79797
5.93549
5.25265
3.99654
2.75651
2.17247
2.61844
4.0367
6.00501
7.98351
9.59093
10.7549
11.6652
12.5797
13.6142
14.6483
15.4006
15.6146
15.2329
14.4416
13.5545
12.8061
12.1839
11.4091
10.0859
7.94066
5.01601
1.71075
-1.35878
-3.60497
-4.70139
-4.69755
-3.97893
-3.10882
-2.62914
-2.89372
-3.97576
-5.65963
-7.51052
-9.00966
-9.73151
-9.51587
-8.56537
-7.40357
-6.67764
-6.86886
-8.04203
-9.77129
-11.3074
-11.9263
-11.2918
-9.63973
-7.67571
-6.22832
-5.83815
-6.50216
-7.71252
-8.76711
-9.17978
-8.96371
-8.63344
-8.92541
-10.3878
-13.0544
-16.3663
-19.3714
-21.0965
-20.9123
-18.7346
-14.9959
-10.426
-5.75385
-1.45354
2.37493
5.9608
9.68201
13.8236
18.3741
22.951
26.9045
29.5685
30.5514
29.9211
28.1788
26.0275
24.0695
22.6257
21.8016
21.7622
22.9977
26.3158
32.4262
41.2594
51.4122
60.163
64.2678
61.3214
51.0809
36.0345
20.786
10.3853
8.29247
14.9064
27.3618
40.7099
49.9403
51.9201
46.4109
35.8041
23.8335
13.9543
8.12987
6.46369
7.65022
9.8603
11.5702
12.0001
11.1038
9.27957
7.04378
4.83176
2.95032
1.60686
0.92859
0.94264
1.55133
2.55395
3.729
4.93469
6.15922
7.47945
8.95001
10.499
11.9107
12.9237
13.3938
13.4233
13.3623
13.6627
14.6507
16.3369
18.3735
20.1876
21.2277
21.2004
20.1789
18.5363
16.7467
15.1622
13.8775
12.7395
11.4835
9.912
8.02039
6.00907
4.18408
2.80534
1.96399
1.55066
1.32726
1.06197
0.656245
0.197759
-0.0882367
0.0350843
0.67731
1.74131
2.94589
3.94138
4.46066
4.43
3.98529
3.39009
2.90296
2.66614
2.67073
2.80677
2.95745
3.07422
3.18719
3.35026
3.56501
3.74207
3.73424
3.42701
2.83
2.1069
1.51563
1.28677
1.51009
2.09795
2.8482
3.56533
4.1577
4.6414
5.04477
5.28285
5.10803
4.20744
2.42281
-0.03121
-2.50907
-4.12743
-4.15529
-2.40686
0.596362
3.82188
6.20181
7.12288
6.63013
5.20684
3.27669
0.799346
-2.67459
-7.40389
-12.6425
-16.2252
-15.0846
-6.74378
8.82933
28.059
44.22
49.7253
39.4458
13.5353
-21.7582
-55.9686
-78.3481
-82.1516
-67.2991
-40.1797
-10.7382
11.7249
22.0671
20.6239
12.0051
2.27028
-3.96427
-5.1377
-2.57668
0.98707
3.18843
3.13624
1.45645
-0.480726
-1.52711
-1.34103
-0.366331
0.625417
1.05772
0.82293
0.216059
-0.342838
-0.580258
-0.478918
-0.207156
0.0379579
0.1538
0.155896
0.117385
0.0902679
0.0700233
0.0203137
-0.0735303
-0.172256
-0.202018
-0.114243
0.0588428
0.200569
0.173582
-0.0813606
-0.47673
-0.797708
-0.81874
-0.460492
0.110737
0.523879
0.394268
-0.418897
-1.63228
-2.56072
-2.37111
-0.469109
3.16682
7.88193
12.5435
15.9621
17.342
16.5548
14.1221
10.9409
7.90565
5.61102
4.25201
3.71769
3.77756
4.23449
4.97059
5.89973
6.90177
7.81295
8.49108
8.90663
9.18134
9.52667
10.1037
10.8883
11.6332
11.9671
11.5856
10.4282
8.7381
6.96572
5.5679
4.8121
4.68639
4.94873
5.26802
5.36687
5.09618
4.43265
3.44498
2.28027
1.17784
0.463947
0.469488
1.36543
2.99537
4.83224
6.14189
6.3081
5.1404
2.95291
0.321496
-2.35244
-5.1636
-8.61011
-13.0271
-17.8431
-21.2001
-20.4002
-13.2209
0.44183
17.5242
32.1601
37.6575
29.4072
7.39926
-22.9896
-52.5603
-71.7078
-74.2321
-59.8153
-34.0273
-5.88931
15.832
25.891
24.0034
14.0478
1.69886
-8.19949
-13.3012
-13.9208
-11.9828
-9.57943
-7.95609
-7.30403
-7.19289
-7.15565
-6.99181
-6.67475
-6.0788
-4.85509
-2.62846
0.602251
4.18021
6.90702
7.58836
5.73315
1.98442
-2.02046
-4.34116
-3.62894
0.257344
6.24576
12.6427
17.9708
21.5776
23.6965
24.9855
25.8889
26.2631
25.5266
23.2398
19.7195
16.2321
14.545
16.0069
20.657
26.9046
32.0548
33.4939
29.9679
22.294
13.1053
5.71704
2.64798
4.51097
9.79775
15.6363
19.1279
18.613
14.2931
7.97867
2.1649
-1.07771
-0.882213
2.2608
6.94084
11.5611
14.9922
16.88
17.5548
17.6828
17.8812
18.4776
19.474
20.6624
21.7843
22.645
23.1498
23.285
23.0855
22.6167
21.9709
21.263
20.6078
20.0819
19.6867
19.3349
18.8773
18.1707
17.1678
15.9939
14.9629
14.4981
14.9565
16.4158
18.528
20.5517
21.604
21.0505
18.8397
15.5667
12.1732
9.40614
7.35614
5.41913
2.81793
-0.544914
-3.43877
-3.42182
2.06697
14.0193
30.4517
46.2341
54.6099
49.9953
30.8426
1.10664
-30.6301
-54.2312
-62.0159
-51.8967
-28.1836
0.31991
24.0174
36.2939
35.6916
25.6779
12.3868
1.61302
-3.48089
-3.02965
0.494786
4.08977
5.83238
5.55142
4.43641
4.02183
5.21223
7.85207
10.9535
13.3261
14.1973
13.5019
11.7662
9.73887
8.02206
6.89574
6.37892
6.42487
7.08918
8.55384
10.998
14.409
18.4666
22.5892
26.1375
28.671
30.1195
30.7713
31.0837
31.4182
31.8528
32.1742
32.0479
31.2547
29.8406
28.0803
26.2742
24.5127
22.5704
20.0232
16.5373
12.1636
7.44693
3.25784
0.415346
-0.702234
-0.341892
0.751267
1.70726
1.94809
1.42526
0.560964
-0.0556892
-0.033851
0.598339
1.42892
1.91422
1.69123
0.772128
-0.477954
-1.55248
-2.07624
-1.98971
-1.55597
-1.20238
-1.29372
-1.95849
-3.05012
-4.24736
-5.22725
-5.81444
-6.03383
-6.05295
-6.06183
-6.16879
-6.37239
-6.6158
-6.87109
-7.1778
-7.59162
-8.06902
-8.37833
-8.13428
-6.98569
-4.87453
-2.20551
0.218093
1.50999
1.11799
-0.904572
-3.96196
-7.29801
-10.4496
-13.43
-16.4415
-19.2472
-20.6449
-18.5621
-10.9973
2.50117
19.6116
35.1548
42.5853
36.6741
16.2374
-14.4893
-46.7416
-70.2543
-77.2178
-65.4087
-39.0538
-7.02927
20.7622
37.1729
40.1034
32.4632
20.0995
8.88904
2.41122
1.13083
3.15646
5.87684
7.48975
7.69269
7.3812
7.74649
9.39995
12.0108
14.5701
16.0279
15.8905
14.4506
12.5744
11.2159
10.9488
11.7527
13.1284
14.4396
15.2782
15.6666
16.0088
16.838
18.5024
20.951
23.7272
26.1744
27.755
28.3288
28.2517
28.2362
29.0265
31.0315
34.0871
37.4663
40.1448
41.2113
40.2396
37.4526
33.6066
29.6499
26.3181
23.8545
21.9775
20.0994
17.6757
14.5108
10.8727
7.37103
4.67056
3.19035
2.93462
3.52904
4.42858
5.18108
5.61202
5.84759
6.18309
6.88341
8.02957
9.48905
11.0106
12.3726
13.4871
14.3977
15.178
15.8099
16.1304
15.9004
14.9602
13.3784
11.4875
9.76311
8.59978
8.10566
8.03809
7.9242
7.30141
5.94143
3.93376
1.59631
-0.70979
-2.72902
-4.3321
-5.42283
-5.84232
-5.39107
-3.99668
-1.91978
0.181429
1.44667
1.21334
-0.609174
-3.4584
-6.44127
-8.89369
-10.7983
-12.7057
-15.1046
-17.5975
-18.4987
-15.3435
-6.29149
8.22407
24.6057
36.7599
38.3717
25.9032
0.855277
-30.0046
-56.8459
-70.5942
-66.6739
-46.9262
-18.7914
7.85336
24.7108
28.1051
19.7905
5.40381
-8.46271
-17.0784
-19.0559
-16.0865
-11.4055
-7.9645
-7.22136
-8.95081
-11.8814
-14.6026
-16.2023
-16.4028
-15.3186
-13.156
-10.1142
-6.52392
-3.03903
-0.635134
-0.297137
-2.50816
-6.82944
-11.863
-15.7025
-16.7062
-14.2225
-8.89642
-2.38128
3.41074
7.14792
8.59123
8.54082
8.27915
8.83118
10.438
12.4994
13.9732
13.9754
12.2428
9.22914
5.82782
2.91952
1.0076
0.117204
-0.0442848
0.184024
0.611964
1.21577
2.01118
2.90989
3.68249
4.06007
3.89929
3.28613
2.49556
1.82544
1.41351
1.16342
0.836239
0.253577
-0.520845
-1.14897
-1.17363
-0.280608
1.48711
3.69852
5.71998
7.02299
7.44546
7.2601
7.01046
7.20564
8.0426
9.30703
10.5014
11.1232
10.9367
10.095
9.05399
8.33753
8.28239
8.88969
9.84266
10.6632
10.9241
10.428
9.30049
7.9815
7.12193
7.39798
9.26709
12.7247
17.1645
21.4526
24.2635
24.5913
22.2159
17.8633
12.9158
8.77113
6.18537
5.00229
4.48604
4.1017
4.24793
6.37234
12.2029
22.3807
35.2646
46.7652
51.6203
45.7362
28.5083
3.85585
-20.7802
-37.2287
-39.9603
-28.4542
-7.40424
15.34
32.1015
38.3921
34.2746
23.6178
11.8407
3.38791
0.134931
1.28063
4.46712
7.31542
8.53284
8.15777
7.05807
6.16291
5.92434
6.23995
6.73868
7.14384
7.4604
7.91273
8.73931
10.0163
11.6195
13.315
14.8883
16.2244
17.313
18.2164
19.0476
19.9709
21.1943
22.9149
25.2192
27.9911
30.8975
33.4874
35.3657
36.3502
36.5219
36.1412
35.4827
34.6897
33.7265
32.4421
30.6847
28.3869
25.5759
22.3263
18.7147
14.8275
10.8166
6.9479
3.57966
1.05089
-0.466024
-1.05676
-1.03046
-0.766133
-0.527823
-0.363812
-0.155949
0.212399
0.6842
0.977779
0.709428
-0.371631
-2.17901
-4.25352
-5.93986
-6.69085
-6.331
-5.12675
-3.62021
-2.32405
-1.46014
-0.90049
-0.343811
0.390681
1.15429
1.50321
0.981142
-0.517925
-2.55408
-4.28086
-4.88152
-4.05375
-2.22314
-0.302729
0.898981
1.2611
1.51517
2.81269
5.91121
10.5061
15.2291
18.459
19.5364
19.5989
21.3392
27.5719
39.2571
54.1195
66.8393
71.0072
62.0237
39.4926
7.8132
-25.4145
-52.3948
-68.032
-71.316
-64.7018
-52.125
-36.9856
-21.263
-6.05035
7.20545
15.9439
17.0336
8.48772
-8.69342
-29.8604
-47.9548
-56.2702
-51.4081
-34.891
-12.5595
7.96558
20.4875
22.5575
15.9186
5.08678
-5.01077
-11.0967
-12.414
-10.2677
-6.78045
-3.67424
-1.67176
-0.62618
-0.0608319
0.340064
0.582563
0.544296
0.248702
-0.0234502
0.122069
0.907701
2.17668
3.42659
4.0819
3.84561
2.91991
1.9662
1.82736
3.16429
6.19193
10.6305
15.8655
21.2081
26.1213
30.3191
33.7353
36.4202
38.4497
39.8931
40.8366
41.4158
41.808
42.1632
42.5039
42.6509
42.2335
40.804
38.0241
33.8474
28.6114
22.9868
17.7897
13.7274
11.1781
10.0965
10.0812
10.569
11.0648
11.3046
11.2835
11.1527
11.0515
10.9753
10.7528
10.148
9.02633
7.48893
5.88761
4.69852
4.30866
4.8215
5.98433
7.28057
8.1463
8.20659
7.41776
6.0516
4.53885
3.25834
2.37892
1.82548
1.37041
0.787489
-0.0200247
-0.981376
-1.91918
-2.66383
-3.15253
-3.46082
-3.75766
-4.21864
-4.94952
-5.95846
-7.17897
-8.51392
-9.86249
-11.1133
-12.1211
-12.7072
-12.7117
-12.0853
-10.9637
-9.65588
-8.51447
-7.73965
-7.22971
-6.59821
-5.39506
-3.4383
-1.06277
0.899924
1.46098
-0.0132299
-3.40186
-7.80456
-11.9525
-14.8472
-16.2464
-16.6741
-16.9105
-17.2645
-17.1225
-15.1538
-10.1613
-2.12804
7.21315
14.7687
17.4018
13.571
4.40446
-6.46599
-14.3648
-15.6763
-9.55686
1.62218
13.3402
20.9762
21.8267
16.1327
6.69456
-2.62146
-8.66685
-10.2139
-8.09659
-4.39406
-1.2128
0.271029
0.0985918
-0.849843
-1.55464
-1.44086
-0.565671
0.597076
1.5596
2.13856
2.52421
3.11303
4.24982
6.04636
8.36306
10.9257
13.4762
15.8617
18.0296
19.9698
21.673
23.1469
24.4752
25.8581
27.5785
29.8833
32.8375
36.2345
39.6271
42.4766
44.3486
45.0565
44.6841
43.4866
41.7414
39.6357
37.2504
34.6258
31.8463
29.0679
26.4613
24.1065
21.9178
19.665
17.0998
14.1212
10.8818
7.75973
5.19632
3.48069
2.60029
2.24775
1.98931
1.50766
0.784356
0.11349
-0.0709352
0.534491
1.88477
3.55175
4.90611
5.42664
4.96718
3.82535
2.564
1.68156
1.32583
1.23253
0.94192
0.171708
-0.890903
-1.59003
-1.13957
0.87448
4.13589
7.6428
10.1886
11.0341
10.3692
9.24323
8.94145
10.138
12.3407
14.0289
13.5043
10.0346
4.63375
-0.0430159
-0.763568
4.71981
16.3843
31.6055
45.9995
55.0779
55.9591
48.3842
34.6459
18.5649
4.04673
-6.15133
-11.0192
-11.183
-8.30638
-4.34346
-0.925007
0.985151
1.1549
-0.0710381
-2.06229
-4.2298
-6.26897
-8.20808
-10.2202
-12.2809
-13.867
-13.915
-11.1457
-4.65839
5.48254
17.9997
30.6877
41.1734
47.8381
50.4757
50.3484
49.5605
49.9921
52.2691
55.2897
56.6254
53.7349
45.5013
33.3366
21.1615
14.0084
15.6839
26.5349
42.5468
56.5483
61.3171
53.3104
35.1663
15.4515
5.34449
13.5142
41.5672
82.4286
122.751
148.475
150.995
130.91
97.4795
64.0317
41.6776
34.5722
39.0971
47.1785
51.6695
50.6046
47.8584
49.9002
60.7045
78.0408
93.6181
97.282
82.9921
53.1126
18.3751
-6.72823
-10.7634
9.23555
46.606
88.6137
122.636
141.595
145.923
141.476
135.079
130.518
127.182
121.758
111.518
96.9238
81.9114
71.7521
69.9039
75.804
84.9369
91.1543
89.9672
81.0317
68.5261
59.2156
59.1462
70.5477
90.4292
111.594
125.733
127.291
116.349
99.0347
84.9969
82.8269
95.49
118.113
139.593
147.688
135.309
104.808
67.6952
39.4343
31.6265
45.5739
70.8617
90.1749
88.2431
60.3867
16.0233
-25.0691
-42.1688
-24.0393
25.0004
86.5935
136.78
157.106
142.84
104.293
60.9007
31.3667
25.0121
38.5259
59.2974
73.0883
71.7885
57.3306
40.1209
33.2395
45.6303
77.6632
120.953
162.117
188.416
192.663
175.498
144.461
110.646
84.4828
72.2488
74.4453
86.4246
100.862
111.048
113.665
109.876
104.244
101.979
105.896
114.718
123.763
127.739
124.133
115.133
106.75
105.352
113.513
127.669
139.307
139.387
123.74
96.3446
68.3391
52.9301
58.7163
84.9889
121.628
153.766
168.79
162.053
138.423
109.218
86.5054
77.989
84.9401
103.547
128.016
153.051
174.295
187.253
186.567
167.338
128.489
76.0903
23.7621
-11.4737
-16.7449
9.50444
55.1265
98.9337
120.805
112.215
81.3648
49.657
40.8503
68.3835
127.556
196.81
247.565
257.562
220.991
150.557
70.9725
7.65086
-23.6304
-21.4718
3.32677
34.6789
58.8207
69.0597
66.2525
55.9633
44.5649
36.3646
32.6619
32.3974
33.4497
33.7974
32.2834
29.0772
25.8924
25.7615
32.0902
47.0351
69.8353
96.1107
118.921
131.496
130.482
117.956
100.884
87.9758
85.3909
93.5775
107.035
117.268
117.39
105.857
87.2599
69.7517
60.6246
62.5733
72.7421
84.9559
93.6416
96.9773
97.3533
98.9523
104.091
110.787
113.307
105.615
85.7726
58.5988
34.6757
25.8081
39.0562
72.4282
114.646
149.423
162.428
147.736
110.696
65.7818
30.3063
16.7948
27.4789
53.5003
79.3304
90.5259
81.2713
58.0056
37.0056
36.5628
67.1615
124.481
189.187
234.437
238.141
194.133
116.434
33.7956
-23.3056
-36.9488
-9.96695
36.3486
73.9534
82.9582
61.7212
26.7271
2.51398
7.41159
43.0476
93.2638
132.675
139.796
107.467
45.3313
-26.1692
-86.1648
-122.195
-133.242
-126.476
-110.725
-90.8819
-66.1363
-32.244
14.2472
72.503
136.371
195.926
240.499
261.837
256.412
226.469
179.689
127.471
82.0464
53.1033
44.9968
55.6675
77.7892
101.692
118.801
124.206
117.524
102.145
83.5384
67.4051
58.1077
57.5428
64.5859
75.4201
85.0136
89.5111
88.5438
86.0479
88.6561
102.056
127.149
158.367
185.521
198.559
192.675
170.837
142.189
117.267
102.902
99.8274
104.158
111.411
120.135
132.646
152.518
180.773
213.647
243.713
263.739
270.732
267.411
260.049
254.072
250.294
244.275
229.27
200.956
161.079
117.86
82.9636
66.716
73.9534
102.274
143.051
184.367
214.597
225.561
214.618
185.334
146.477
109.395
84.403
77.4448
88.463
112.235
141.187
168.586
190.385
204.973
211.563
208.911
195.652
172.133
142.17
112.868
91.852
83.2697
85.1597
90.3202
90.6558
82.5719
69.9759
62.7008
70.9975
99.3445
143.425
192.228
234.008
262.332
278.407
288.258
296.753
302.606
298.008
273.604
226.004
163.075
103.181
67.864
71.3498
112.38
173.068
226.025
246.728
225.259
171.588
111.555
75.1433
82.3931
133.552
208.187
273.856
300.499
274.014
202.832
114.476
43.713
17.6604
44.5775
111.215
189.617
249.951
273.321
258.796
221.813
185.229
167.673
174.87
197.935
219.064
221.479
198.489
157.174
114.983
91.1078
97.0639
131.151
179.423
222.452
244.339
239.474
213.942
181.325
155.514
144.361
147.269
157.367
166.481
169.781
167.574
163.645
161.702
162.475
163.435
161.206
154.908
147.914
146.459
155.576
174.801
196.569
208.944
201.757
172.96
131.421
94.0686
78.3375
93.7026
136.841
193.179
244.076
275.719
284.793
277.933
265.586
254.326
242.487
221.966
185.11
132.319
75.2939
33.3295
24.167
54.3435
114.539
182.805
234.248
252.191
235.089
195.864
154.398
127.445
121.238
130.271
142.214
145.788
137.171
121.726
110.516
113.829
135.236
169.176
203.116
223.086
219.911
193.318
152.192
110.971
83.7863
78.8237
95.2419
123.924
151.764
167.65
167.483
155.815
143.144
139.946
150.327
168.722
181.822
175.363
142.624
90.1475
37.0781
7.63792
19.8977
76.3391
161.191
246.282
302.79
313.215
277.826
212.846
141.998
86.2738
57.0848
55.386
75.5954
110.588
154.19
200.145
239.567
260.307
250.379
204.44
129.485
45.4174
-21.3429
-48.9625
-30.5077
22.2641
84.2188
128.986
141.804
126.389
102.239
93.8663
117.667
173.252
243.527
303.101
330.376
317.094
270.888
210.287
155.453
119.66
105.524
106.974
114.9
122.81
129.425
137.317
149.067
163.671
175.529
176.67
160.99
128.194
85.2951
44.7764
20.1181
20.5436
47.1648
92.1041
141.014
178.138
192.095
180.223
149.679
114.64
90.4113
86.7142
103.054
128.538
146.683
143.407
114.522
68.8839
25.1328
3.09424
13.8654
53.6696
104.972
144.703
155.591
134.758
94.9677
57.7863
42.3107
55.5138
89.3442
125.915
147.629
146.499
127.627
105.349
94.6974
103.227
127.58
156.11
175.435
176.931
159.93
130.725
98.9571
73.8158
61.7165
65.4828
84.0687
112.145
140.038
155.317
146.821
110.152
51.8782
-10.6321
-55.0016
-63.3439
-30.9355
30.7251
98.6486
148.885
167.527
156.398
130.502
108.837
103.862
115.507
132.82
141.861
134.864
115.14
94.9029
87.5111
98.9221
123.562
147.094
154.452
138.422
103.788
64.7316
37.1268
30.2547
42.6336
64.0762
82.3492
90.1835
88.4039
83.5595
81.9954
84.5895
85.9281
78.7428
60.7749
39.2294
29.0339
44.8178
90.7364
154.36
209.288
226.51
189.349
104.07
-0.171431
-83.067
-111.362
-74.5299
10.1365
105.766
173.401
189.915
157.441
100.021
49.8344
30.6256
46.882
83.8091
117.158
126.913
107.328
68.4308
29.0794
6.20081
6.41043
24.2665
47.3021
64.1807
70.9528
72.0078
75.7364
88.0285
107.741
126.78
134.513
123.709
94.5386
54.5584
15.081
-13.7138
-26.2181
-21.9498
-3.71063
24.855
60.55
100.213
139.461
172.107
191.239
191.723
172.778
139.026
99.2277
63.1857
38.2685
27.1474
27.6189
34.3045
41.2055
43.9095
40.6683
32.2482
20.9832
9.63845
0.536406
-4.89458
-6.21856
-3.89044
0.936356
6.66787
11.6124
14.4011
14.3983
11.9399
8.23053
4.84609
2.98815
2.84237
3.44236
3.24939
1.26091
-1.94052
-3.91958
-1.32029
8.24369
24.2565
42.5
56.1498
58.5767
46.6456
22.8315
-5.12022
-27.096
-34.8574
-25.6355
-3.33237
23.2604
44.3422
53.2025
48.6348
34.697
18.2081
5.4155
-0.50527
-0.0861192
3.62967
7.18668
8.5064
7.53679
5.67965
4.56787
4.99457
6.55421
8.05766
8.34638
6.98104
4.4427
1.8118
0.173574
0.0971697
1.43696
3.50149
5.45268
6.71749
7.22828
7.41151
7.95836
9.49055
12.2628
16.0211
20.0754
23.5603
25.7816
26.498
26.0098
25.0024
24.2084
24.0442
24.3957
24.663
24.0472
21.9406
18.2317
13.3803
8.23633
3.70256
0.409445
-1.45205
-2.08907
-1.91658
-1.34192
-0.636784
0.0636917
0.677873
1.09739
1.17785
0.806213
-0.0107002
-1.11111
-2.23579
-3.1527
-3.77334
-4.18475
-4.57239
-5.07962
-5.69425
-6.23978
-6.48475
-6.30619
-5.80188
-5.26907
-5.04467
-5.28924
-5.84154
-6.24303
-5.94272
-4.59015
-2.26343
0.502083
2.92687
4.36075
4.64168
4.25045
4.15163
5.35576
8.38493
12.8999
17.7043
21.1791
21.9866
19.713
15.1076
9.74556
5.24604
2.4511
1.05415
-0.0359608
-1.72618
-3.71408
-4.10737
-0.128424
10.2533
26.5463
44.8837
58.8467
61.906
50.4997
26.2474
-3.95482
-30.2681
-43.7733
-40.1373
-21.3734
5.13082
29.8353
44.9762
47.3972
39.1124
25.5993
12.8916
4.97349
2.62253
3.96529
6.12956
6.94877
5.8559
3.70159
1.85417
1.24685
1.91808
3.19163
4.24251
4.62367
4.44294
4.15854
4.20561
4.73333
5.60829
6.63449
7.7952
9.32438
11.5482
14.6032
18.2285
21.7879
24.5384
26.0089
26.2792
25.9959
26.1031
27.4116
30.2167
34.1458
38.2983
41.6038
43.2263
42.8396
40.6756
37.3588
33.63
30.0912
27.0646
24.5907
22.5261
20.6702
18.8625
17.0248
15.1562
13.3061
11.5471
9.95445
8.59163
7.49433
6.65463
6.01317
5.46987
4.91701
4.28541
3.5822
2.89619
2.35916
2.07549
2.0555
2.19485
2.32261
2.3006
2.11845
1.91926
1.92462
2.29035
2.97884
3.73979
4.23385
4.24221
3.83582
3.38405
3.37129
4.11302
5.54185
7.20888
8.52208
9.09254
8.97792
8.66088
8.75585
9.60806
11.0261
12.3197
12.6384
11.4263
8.73863
5.2438
1.91506
-0.414672
-1.39611
-1.24059
-0.523809
0.146218
0.40826
0.243847
-0.119996
-0.40714
-0.460732
-0.300157
-0.0636916
0.101815
0.128144
0.045501
-0.059932
-0.111058
-0.0843677
-0.0125481
0.0475047
0.0559729
0.0149568
-0.0356865
-0.0466649
0.00593358
0.100275
0.176571
0.171735
0.0630961
-0.105974
-0.24024
-0.247151
-0.104733
0.101136
0.205247
0.0563158
-0.372018
-0.925478
-1.32393
-1.32067
-0.886392
-0.298975
-0.0498591
-0.573928
-1.92339
-3.56976
-4.48175
-3.496
0.16447
6.47151
14.4961
22.7111
29.5684
34.0841
36.1577
36.4891
36.1566
36.0855
36.6667
37.6859
38.5489
38.6427
37.6339
35.5697
32.7791
29.6717
26.5615
23.5942
20.7775
18.0601
15.398
12.7829
10.2442
7.84728
5.69445
3.91218
2.60844
1.80812
1.40586
1.18298
0.903731
0.45137
-0.0759042
-0.38191
-0.116384
0.918648
2.61327
4.5424
6.12812
6.89798
6.70775
5.81114
4.73855
4.0472
4.07091
4.79367
5.90213
6.97698
7.71387
8.05584
8.17355
8.31557
8.62317
9.02342
9.27069
9.11991
8.53186
7.77787
7.35419
7.72108
8.99484
10.7759
12.2481
12.5411
11.1862
8.40564
5.0409
2.11907
0.292668
-0.494555
-0.855123
-1.34567
-1.74953
-0.766701
3.529
12.5338
25.8103
40.4295
51.5501
54.2299
45.7545
27.3546
4.33236
-15.6785
-25.6727
-22.1525
-6.59262
15.1981
35.5189
47.8843
49.396
41.4054
28.35
15.4954
6.7179
3.29042
4.0214
6.41857
8.13738
7.99236
6.16995
3.74196
1.88975
1.28774
1.90246
3.19088
4.48741
5.3342
5.60986
5.4597
5.13296
4.84675
4.73787
4.88788
5.36297
6.21888
7.46396
9.01515
10.6925
12.2727
13.5805
14.5691
15.3407
16.0932
17.0172
18.1946
19.5434
20.8301
21.7359
21.9451
21.2261
19.4879
16.8072
13.4272
9.72172
6.12626
3.04185
0.739773
-0.697513
-1.3715
-1.49902
-1.31195
-0.973675
-0.550375
-0.0427479
0.550029
1.17739
1.72697
2.05955
2.06673
1.72092
1.09845
0.372831
-0.215678
-0.410763
-0.0114014
1.04297
2.60038
4.28276
5.5709
5.98758
5.3181
3.76213
1.91894
0.57803
0.389058
1.56173
3.74775
6.17414
7.97221
8.54722
7.81687
6.21828
4.49985
3.41078
3.43031
4.63719
6.74344
9.24821
11.6341
13.5292
14.779
15.4079
15.4922
15.015
13.8
11.5978
8.31745
4.28753
0.370122
-2.19953
-2.22498
0.979736
7.31652
15.9818
25.8306
35.7694
44.9128
52.4365
57.3304
58.3906
54.6511
46.1043
34.2479
21.9622
12.5719
8.46812
10.0278
15.4824
21.8688
26.5506
28.4438
28.2682
27.7573
28.3983
30.5234
33.2772
35.3658
35.9829
35.2541
33.9554
32.8176
32.0177
31.2658
30.3859
29.849
30.7131
33.8763
39.134
44.8065
48.4045
48.0935
44.0783
38.9205
36.3852
39.3378
47.9037
59.0705
68.1175
71.1606
67.37
59.5319
52.5498
50.6769
55.0415
62.8915
69.0267
68.647
60.0411
45.6202
30.7234
20.8432
18.7808
23.2612
29.7357
32.9175
29.6799
20.7727
10.4537
4.24389
5.99107
15.7797
29.7696
42.0392
47.4762
44.2383
34.5513
23.4869
16.3944
16.3182
22.6821
31.8202
38.9703
40.6374
36.1271
27.5748
18.6124
12.4972
10.7043
12.6273
16.3727
20.0579
22.8288
25.0689
27.7857
31.6352
36.2174
40.0827
41.4548
39.2583
33.8545
27.04
21.2586
18.414
18.916
21.5012
23.9726
24.491
22.6976
19.9774
18.6107
20.2164
24.3971
28.519
29.0143
23.6922
13.8043
4.48875
2.91948
14.7175
40.3048
73.2193
101.658
112.958
99.1521
60.9881
8.36417
-43.2094
-78.6219
-88.949
-74.462
-43.6878
-9.22658
17.5491
30.5025
29.9284
20.905
10.0661
2.53199
0.306371
2.47092
6.59118
10.3324
12.4689
13.0128
12.7132
12.4042
12.5847
13.3336
14.4401
15.5626
16.3204
16.3402
15.3353
13.2395
10.3346
7.26324
4.86696
3.89131
4.69547
7.11471
10.5495
14.2364
17.5653
20.2917
22.5563
24.7191
27.1033
29.7715
32.4372
34.5528
35.5419
35.0819
33.3162
30.8826
28.7136
27.6581
28.0718
29.5681
31.0781
31.2411
28.9822
24.025
17.0907
9.67077
3.4607
-0.290421
-1.22077
0.0987262
2.50193
4.75652
6.02587
6.07606
5.19694
3.95037
2.91314
2.53001
3.08502
4.71636
7.39392
10.8436
14.4839
17.4706
18.9017
18.135
15.0894
10.3805
5.20633
1.00865
-0.970419
-0.0790211
3.53263
8.93555
14.6645
19.1137
20.9896
19.7087
15.6207
9.96173
4.50596
0.998324
0.555189
3.26992
8.19826
13.7404
18.2537
20.621
20.5342
18.4105
15.0548
11.2889
7.73614
4.79994
2.72917
1.62634
1.35831
1.48658
1.40465
0.760573
-0.00644734
0.595759
4.71933
14.0606
28.4393
44.8579
57.7981
60.9928
50.1253
25.2664
-8.23381
-41.0922
-63.33
-68.0938
-54.3758
-27.391
3.5693
28.8308
41.9306
41.5939
31.4093
17.605
6.12931
0.390915
0.518111
4.17364
8.24578
10.4621
10.1986
8.2913
6.18248
4.99252
5.01715
5.82248
6.75293
7.47329
8.20768
9.55798
12.0397
15.6268
19.5798
22.6708
23.7114
22.1349
18.3593
13.7511
10.1868
9.37135
12.179
18.2739
26.1731
33.7472
38.989
40.7602
39.2164
35.7188
32.2434
30.5203
31.2705
33.8916
36.7503
37.9611
36.2897
31.7473
25.5816
19.6678
15.6002
13.9362
13.9692
14.1365
12.8538
9.36121
4.16664
-1.12328
-4.50179
-4.46607
-0.72075
5.62325
12.4342
17.3652
18.7512
16.2444
10.9411
4.95483
0.601671
-0.485802
2.02929
7.09023
12.6981
16.7235
17.7404
15.5393
11.1205
6.20235
2.48597
1.01141
1.8695
4.34719
7.37555
10.0254
11.8109
12.6947
12.8646
12.4652
11.4724
9.7885
7.48705
5.02641
3.25491
3.139
5.31158
9.66435
15.2217
20.4113
23.6437
23.9348
21.2572
16.4381
10.6692
4.93385
-0.27749
-4.75614
-7.99952
-8.71126
-4.88799
5.27084
21.9127
42.3043
60.7113
69.8741
63.7729
40.585
4.38852
-35.4456
-67.2387
-81.2775
-73.5709
-47.4158
-12.0439
21.0566
42.51
48.2313
40.173
24.5814
8.81575
-1.70691
-5.15163
-3.04319
1.34034
4.93307
6.22106
5.48031
4.07788
3.42514
4.20674
6.21374
8.7084
10.9766
12.7027
13.9906
15.1056
16.1697
17.0318
17.3897
17.0661
16.244
15.4973
15.5792
17.0748
20.1013
24.2149
28.5694
32.2487
34.6101
35.4883
35.1865
34.2908
33.4161
33.0011
33.2206
34.0099
35.1454
36.3222
37.1983
37.4215
36.6716
34.7341
31.5885
27.4611
22.7983
18.1494
13.9968
10.6076
7.97359
5.8702
4.00795
2.20789
0.520918
-0.763916
-1.22951
-0.517238
1.48365
4.52107
7.99159
11.0858
13.0251
13.3089
11.8843
9.17053
5.92495
2.99835
1.06782
0.444759
1.02091
2.3576
3.86848
5.01802
5.46752
5.13626
4.18477
2.94949
1.8556
1.31827
1.63163
2.85346
4.71934
6.64252
7.8488
7.64619
5.75155
2.53007
-1.00242
-3.48489
-3.74888
-1.36881
3.05212
8.05062
11.9036
13.3951
12.3556
9.65974
6.65502
4.33764
2.79324
1.31554
-0.780861
-3.12546
-3.77938
0.179474
10.9965
28.2588
47.7688
62.2322
63.8733
48.0075
15.8812
-24.7935
-62.1909
-84.7844
-85.9016
-66.3364
-33.8209
0.345696
25.8844
37.2361
34.8492
23.811
10.8394
1.26298
-2.66897
-1.70206
1.77441
5.34451
7.58903
8.22052
7.61232
6.25572
4.53013
2.81029
1.64844
1.74455
3.63172
7.27173
11.8728
16.1268
18.7972
19.3534
18.2964
16.9777
16.9902
19.4335
24.4141
31.0078
37.6785
42.9344
45.9113
46.6366
45.8881
44.7507
44.0931
44.2028
44.7302
44.9425
44.1486
42.0778
39.0241
35.6844
32.7752
30.6332
29.0193
27.245
24.5654
20.6333
15.7612
10.8313
6.88578
4.60805
3.9756
4.27976
4.50804
3.88535
2.28135
0.264325
-1.22417
-1.39347
-0.0428928
2.31513
4.70414
6.16329
6.20279
5.00594
3.29065
1.91986
1.46914
1.96642
2.91997
3.60379
3.44815
2.34147
0.699091
-0.731924
-1.23993
-0.51621
1.15147
2.95846
3.91333
3.28066
0.941352
-2.49464
-5.8821
-7.96449
-7.8509
-5.35051
-1.0375
3.9605
8.34889
11.0745
11.622
10.1251
7.28256
4.11235
1.6006
0.333395
0.236834
0.569932
0.264996
-1.43404
-4.28229
-6.6815
-6.0115
0.281199
13.184
30.9059
48.7015
60.1137
59.3597
43.9293
16.1934
-16.8691
-45.9186
-62.637
-62.8261
-47.8786
-24.0005
0.419284
18.0868
25.307
22.7481
14.3631
5.18804
-0.870051
-2.31206
-0.0284405
3.73217
6.72303
7.7006
6.69954
4.63899
2.62018
1.33615
0.855996
0.796466
0.695479
0.340965
-0.114993
-0.280394
0.220855
1.52169
3.43725
5.57297
7.54749
9.20807
10.7268
12.53
15.0973
18.7241
23.3565
28.5676
33.6782
37.9687
40.897
42.2484
42.1734
41.1136
39.6444
38.2845
37.3306
36.768
36.2922
35.4412
33.7917
31.1426
27.6026
23.5422
19.4331
15.6623
12.4161
9.6865
7.37546
5.40944
3.77903
2.48442
1.45358
0.540301
-0.338741
-0.984479
-0.776439
1.21314
5.80144
13.1218
22.1993
30.9749
36.8858
37.814
32.9849
23.3732
11.3924
-0.00594874
-8.40437
-12.6747
-13.1105
-10.965
-7.70833
-4.40887
-1.50694
1.01212
3.25759
5.15796
6.43233
6.78354
6.15032
4.84096
3.46579
2.7114
3.07579
4.6795
7.21234
10.017
12.2786
13.2761
12.6289
10.448
7.29828
3.93914
0.941047
-1.60779
-4.07344
-6.84958
-9.72403
-11.4576
-9.99645
-3.44142
8.58
23.8822
37.7862
44.5806
39.9367
23.202
-1.63323
-26.9829
-44.4544
-48.2075
-37.3522
-16.2623
7.33545
25.5814
33.5207
30.635
20.3519
7.99741
-1.67952
-6.24794
-5.96411
-2.88902
0.559575
2.80946
3.58229
3.57357
3.74124
4.68398
6.41542
8.54204
10.6236
12.4471
14.0647
15.6294
17.1857
18.5746
19.5187
19.8253
19.5755
19.1754
19.2304
20.298
22.6369
26.0732
30.0423
33.7896
36.6434
38.2472
38.6604
38.2954
37.7226
37.4311
37.6405
38.2355
38.8378
38.9739
38.2608
36.5367
33.893
30.6139
27.0626
23.5659
20.3345
17.435
14.807
12.3154
9.8217
7.26016
4.69586
2.33674
0.48036
-0.598689
-0.778746
-0.173898
0.884973
1.9785
2.78185
3.20705
3.42044
3.71572
4.3086
5.17353
6.02914
6.4954
6.33947
5.66032
4.8838
4.54455
4.96337
6.0094
7.10819
7.52611
6.79616
5.04743
3.0296
1.78121
2.09475
4.06563
6.98986
9.69563
11.1502
11.0151
9.83335
8.72853
8.76929
10.35
12.9328
15.2919
16.112
14.5986
10.776
5.36405
-0.599804
-6.09048
-10.1593
-11.7783
-9.75118
-3.00307
8.69112
23.873
39.0573
49.38
50.2608
39.4809
18.6701
-6.68549
-28.966
-41.2578
-40.0719
-26.6864
-6.48411
13.3849
26.8993
31.2998
27.593
19.4088
10.9653
5.20916
2.94453
3.14238
4.01486
4.1504
3.13276
1.46516
0.0234699
-0.544212
-0.130125
0.908373
2.07339
3.05721
3.88908
4.85114
6.25221
8.20644
10.5376
12.852
14.7402
16.0105
16.845
17.7907
19.5633
22.725
27.3667
32.9515
38.4296
42.6106
44.6533
44.4468
42.6864
40.5833
39.3245
39.5335
40.9899
42.7434
43.5653
42.5143
39.3463
34.5847
29.2421
24.3515
20.5447
17.8678
15.8931
14.0353
11.8917
9.43733
6.9935
5.01369
3.81495
3.40021
3.45801
3.52916
3.24511
2.51016
1.53412
0.702266
0.35498
0.595246
1.22652
1.85335
2.08971
1.76175
0.993561
0.128457
-0.471125
-0.632169
-0.468031
-0.304978
-0.477875
-1.11459
-2.04156
-2.87602
-3.25715
-3.07538
-2.54649
-2.06302
-1.89793
-1.94802
-1.7093
-0.551396
1.83525
5.08899
8.18135
9.84651
9.23786
6.43021
2.42757
-1.3871
-4.05834
-5.59865
-6.84244
-8.605
-10.6374
-11.1286
-7.30634
2.9318
19.1359
37.3132
50.6928
52.2514
37.9983
9.42792
-26.2311
-58.3518
-76.9381
-76.5682
-58.4551
-29.714
-0.251339
21.2227
30.2561
27.5741
17.7531
6.58459
-1.48227
-4.71209
-3.92767
-1.27874
1.20358
2.51202
2.74025
2.54852
2.50133
2.69752
2.83156
2.53257
1.6958
0.589965
-0.291243
-0.499716
0.158316
1.58666
3.52127
5.70237
7.98193
10.319
12.7006
15.0712
17.3331
19.4154
21.3525
23.2961
25.4316
27.834
30.3539
32.614
34.141
34.5776
33.8631
32.2816
30.3426
28.5473
27.1568
26.0808
24.9401
23.2695
20.7584
17.4098
13.5509
9.69779
6.35236
3.82669
2.1692
1.20823
0.673947
0.331308
0.0648806
-0.110449
-0.100319
0.193607
0.812739
1.71872
2.80968
3.95946
5.05818
6.03797
6.87861
7.59692
8.22785
8.80411
9.33887
9.81477
10.1838
10.3819
10.3572
10.103
9.67686
9.19121
8.7738
8.51765
8.4542
8.57485
8.89448
9.51268
10.6128
12.3665
14.7746
17.5392
20.0734
21.691
21.9043
20.6606
18.3505
15.5471
12.6218
9.51839
5.91611
1.78311
-1.99485
-3.40429
0.108711
10.2963
26.5806
45.2227
59.9165
63.9068
52.8957
27.4251
-6.52966
-39.2927
-60.9839
-65.3143
-51.9919
-26.6564
1.59034
23.8839
34.8481
34.0383
25.1715
13.792
4.65179
0.0180938
-0.520002
1.00567
2.45207
2.67901
1.81193
0.744595
0.354107
0.944349
2.18336
3.4545
4.31533
4.75704
5.13915
5.89589
7.23544
9.02199
10.89
12.4906
13.7046
14.6982
15.8078
17.3417
19.4216
21.9447
24.6649
27.3268
29.7683
31.9458
33.8879
35.626
37.146
38.381
39.2307
39.5821
39.3197
38.3326
36.5392
33.9337
30.6368
26.913
23.1251
19.6297
16.6567
14.2317
12.1884
10.2688
8.2635
6.1224
3.97971
2.08486
0.678604
-0.119321
-0.354986
-0.200295
0.143626
0.543885
0.981878
1.52698
2.25803
3.18146
4.19602
5.12646
5.80808
6.17285
6.28529
6.30479
6.39541
6.63699
6.99091
7.33869
7.56362
7.6172
7.52596
7.34171
7.08684
6.75544
6.38743
6.16253
6.41828
7.5248
9.64538
12.5172
15.4188
17.4058
17.7295
16.2055
13.292
9.79521
6.37553
3.19835
0.0288159
-3.21428
-5.79403
-5.92673
-1.38284
9.16924
24.7185
41.2823
52.7602
53.2136
39.6766
14.1246
-16.5456
-42.7903
-56.0946
-52.4285
-33.8821
-7.70961
16.7635
31.9213
34.6141
26.761
13.7539
1.64135
-5.4821
-6.73825
-4.03986
-0.491373
1.39801
0.792061
-1.4792
-3.7691
-4.68599
-3.78054
-1.57284
0.944244
2.93358
4.09584
4.6514
5.03475
5.55781
6.25436
6.94893
7.43315
7.58907
7.38797
6.82806
5.94053
4.92897
4.35768
5.19044
8.51467
14.9772
24.1961
34.5276
43.4468
48.4764
48.258
43.2082
35.3749
27.5156
21.851
19.1298
18.4777
18.0697
16.2231
12.3017
6.97178
1.73693
-1.92131
-3.29139
-2.68455
-1.12787
0.253544
0.786882
0.456828
-0.273246
-0.845465
-0.942595
-0.602623
-0.103906
0.256155
0.335154
0.184428
-0.0341694
-0.171917
-0.173468
-0.0786455
0.0320667
0.0979728
0.105233
0.0745175
0.0316211
-0.0109641
-0.0496577
-0.0732547
-0.0561005
0.0253404
0.160343
0.282921
0.289246
0.098171
-0.27503
-0.684871
-0.90519
-0.758342
-0.258578
0.330894
0.600109
0.235101
-0.727146
-1.8123
-2.30893
-1.70334
-0.108193
1.63294
2.35798
1.40602
-0.588486
-1.49041
1.59486
10.7737
25.6969
42.7237
55.629
57.8544
45.4617
19.4219
-13.9878
-45.1037
-64.4317
-66.3214
-51.1161
-24.8213
3.50696
25.4128
36.0774
35.4957
27.5159
17.4701
9.67698
5.95543
5.62091
6.63929
7.11427
6.28686
4.64695
3.30601
3.14488
4.26989
6.03599
7.52775
8.14581
7.93971
7.52404
7.67222
8.85285
10.9758
13.4719
15.638
17.0425
17.772
18.3983
19.6937
22.2432
26.1454
30.933
35.7407
39.6302
41.9248
42.4155
41.3739
39.3934
37.1502
35.1874
33.7926
32.9776
32.5245
32.054
31.0938
29.167
25.9248
21.3223
15.7775
10.2053
5.83622
3.81014
4.66996
7.97802
12.2836
15.5439
15.889
12.4257
5.70902
-2.37803
-9.32739
-13.0034
-12.4871
-8.38313
-2.46089
3.17224
6.95093
8.36979
7.93904
6.68365
5.51528
4.8291
4.50036
4.19687
3.74439
3.28526
3.14057
3.50278
4.20209
4.73407
4.54956
3.42236
1.65138
-0.0396391
-0.845398
-0.255196
1.75371
4.78515
8.2609
11.6438
14.5208
16.5618
17.4793
17.0914
15.4635
12.9732
10.1556
7.35455
4.42873
0.834813
-3.781
-8.74257
-11.8528
-9.84723
0.0683673
18.1706
40.7898
60.596
68.9668
59.6772
32.2479
-6.82924
-45.9111
-72.5323
-78.3942
-62.7237
-32.4245
1.03064
26.465
37.3415
33.6818
20.9485
6.76431
-2.73587
-5.18891
-2.10114
2.87023
6.25723
6.46084
4.07183
0.974022
-1.021
-1.16625
0.0625814
1.5472
2.3546
2.28199
1.85685
1.89765
2.97724
5.12355
7.88958
10.6818
13.1038
15.1108
16.9254
18.8236
20.9578
23.3257
25.867
28.5776
31.526
34.746
38.0862
41.153
43.4322
44.5536
44.547
43.9079
43.3845
43.5622
44.4631
45.404
45.2367
42.89
37.9555
31.0125
23.5079
17.2228
13.5637
12.9969
14.8689
17.6712
19.6198
19.3092
16.2032
10.8153
4.53829
-0.812794
-3.61693
-3.0408
0.592455
5.83206
10.5857
12.9371
11.985
8.31515
3.8271
0.922571
1.38679
5.49094
11.7741
17.6438
20.5215
18.98
13.3254
5.37142
-2.43273
-8.05567
-10.6111
-10.4752
-8.84636
-7.05489
-5.98422
-5.82537
-6.1772
-6.35174
-5.71308
-3.93607
-1.14209
2.10101
4.92617
6.45311
6.13575
4.01521
0.712028
-2.89263
-6.13443
-8.89052
-11.4689
-14.0372
-15.9235
-15.3423
-9.97252
1.66301
18.651
36.9387
50.1251
51.8002
38.5316
12.0524
-20.6112
-49.42
-65.1553
-63.1011
-44.8602
-17.4619
9.76708
29.0368
36.8436
34.5032
26.5173
17.8743
11.7649
8.75348
7.51834
6.40716
4.73464
3.08397
2.59967
3.90046
6.42264
8.65641
9.1169
7.40024
4.61363
2.85864
4.03635
8.66777
15.4323
21.7202
24.9198
23.7462
18.9037
12.7427
8.12208
7.09052
10.0629
15.861
22.5112
28.3065
32.5537
35.6537
38.5597
41.9914
45.8783
49.3305
51.1117
50.3114
46.827
41.4044
35.253
29.4786
24.653
20.726
17.2741
13.8939
10.4966
7.34958
4.87818
3.3805
2.83518
2.90506
3.11105
3.05877
2.59354
1.82657
1.05931
0.675371
1.04977
2.47429
5.06807
8.66623
12.7394
16.4383
18.8274
19.2661
17.7726
15.1538
12.7599
11.9114
13.2452
16.3199
19.7243
21.6911
20.9415
17.3391
12.0097
6.84235
3.61524
3.18148
5.12429
8.03918
10.274
10.7287
9.30844
6.83437
4.52003
3.34477
3.67625
5.31123
7.8348
11.0096
14.9114
19.7168
25.2988
30.9328
35.3571
37.2111
35.6211
30.6026
23.06
14.4252
6.20406
-0.269287
-3.77573
-3.04834
3.13449
15.3679
32.7022
51.9397
67.8157
74.4016
67.4056
46.4068
15.8543
-15.9118
-39.4498
-47.7287
-38.8292
-16.6149
10.9153
34.8179
48.4973
49.72
40.6749
26.3474
12.1671
2.02744
-2.61896
-2.51648
0.346551
3.79388
6.17971
6.64365
5.02742
1.6556
-2.88234
-7.911
-12.8144
-17.1319
-20.5605
-22.8459
-23.6213
-22.3265
-18.329
-11.254
-1.3744
10.1835
21.6097
30.9625
36.8831
39.1318
38.6628
37.1828
36.4007
37.3359
40.0148
43.6676
47.2729
50.1246
52.1108
53.5775
54.8989
56.0364
56.3724
54.9358
50.9144
44.1796
35.5352
26.5405
18.974
14.1821
12.6072
13.6941
16.1892
18.6691
20.0524
19.8913
18.3666
16.0548
13.6159
11.5454
10.0622
9.12123
8.4956
7.87646
6.97301
5.61498
3.84889
1.98843
0.563808
0.144547
1.08123
3.28255
6.16162
8.82217
10.4329
10.623
9.69298
8.50813
8.09356
9.10712
11.4421
14.1655
15.8476
15.1613
11.4982
5.33407
-1.82932
-7.94951
-11.1817
-10.5848
-6.50298
-0.444744
5.51859
9.60229
11.0391
10.3499
9.00538
8.62366
10.0975
13.1098
16.3137
18.096
17.502
14.7806
11.2107
8.2979
6.84672
6.53198
6.31942
5.53103
4.85878
6.53207
13.2698
26.4015
44.1885
61.4849
71.299
67.7934
49.3623
20.1703
-10.8423
-33.2648
-39.4187
-27.5284
-2.38178
26.7933
50.1863
61.181
58.4024
45.3431
28.0838
12.4403
1.92113
-2.7678
-2.85372
-0.101083
4.19364
9.35748
14.837
19.6483
22.3538
21.7019
17.5383
11.3326
5.83668
3.89931
7.00436
14.3352
22.9455
29.0421
29.779
24.6613
15.8387
7.14101
2.34738
3.56324
10.4806
20.8078
31.5391
40.34
46.3433
50.0506
52.5581
54.674
56.4786
57.5338
57.505
56.6914
56.0275
56.4849
58.2284
60.1085
59.9353
55.542
46.1481
33.2638
20.5292
12.3994
12.2088
20.5403
34.7319
49.8195
60.488
63.0972
56.8381
43.5747
26.6473
9.42954
-5.55308
-16.6227
-22.4003
-21.4248
-12.4973
4.30131
26.6143
49.7287
67.861
76.4004
73.9723
63.1067
48.9996
36.9547
29.9119
27.4617
26.8611
25.3383
22.1678
19.1535
19.2043
23.9689
32.1797
39.9648
43.1344
40.1071
33.5833
29.701
34.8744
51.9521
77.8563
104.14
120.34
118.504
96.691
59.8178
17.6623
-18.8482
-41.2838
-45.8708
-33.7009
-9.46789
20.3542
49.1537
71.3794
83.3876
84.0499
75.0023
60.2471
44.9507
33.699
28.9048
30.1508
34.8605
39.9906
43.831
46.894
51.3484
59.291
70.8492
83.2742
91.6941
91.3066
79.9759
59.8986
37.3834
20.6653
16.6164
27.775
51.0296
78.5995
100.968
110.58
104.761
86.6456
63.7276
44.6668
35.7233
38.3414
48.8758
60.4889
66.2862
62.2457
48.6739
29.6785
11.0992
-1.99836
-7.09209
-4.57919
3.12415
13.0439
22.8306
31.1783
37.5502
41.6821
43.3519
42.5781
40.0075
37.0547
35.509
36.7028
40.6926
45.9748
49.9942
50.2551
45.4875
36.2719
24.81
13.975
6.13525
2.32466
2.11017
4.13196
6.96443
9.83294
12.8511
16.7214
22.1179
29.1041
36.8971
44.0864
49.1871
51.2382
50.1444
46.5999
41.6574
36.1958
30.5952
24.8031
18.7366
12.7469
7.80718
5.23162
6.01709
10.1592
16.36
22.362
25.8062
25.2102
20.5838
13.3904
5.90817
0.342149
-1.89048
-0.445811
4.06588
10.3879
16.9076
21.896
23.8233
21.8668
16.5094
9.86773
5.31539
6.24045
14.3038
28.0464
42.7674
52.0984
50.8093
37.5816
16.2745
-5.17329
-17.879
-15.7358
2.13726
31.4455
65.1481
96.8218
123.012
143.286
158.162
166.504
164.367
146.463
109.694
56.6925
-3.00464
-55.4293
-87.5069
-92.7113
-74.0979
-43.0096
-13.9805
1.65362
0.31041
-13.1844
-28.823
-36.5772
-30.8205
-12.0772
14.2108
40.6972
61.1435
72.1315
73.2258
66.1963
54.108
40.6721
29.7148
24.4213
26.3124
34.3969
45.1714
53.8204
56.2646
51.0742
40.187
27.9544
18.9722
15.851
18.115
22.7572
26.0356
25.4394
20.7574
13.799
7.12944
2.68571
1.06978
1.77236
3.96377
7.18855
11.4791
16.8913
22.9083
28.2538
31.358
31.2356
28.2056
23.9294
20.6445
19.9841
22.0586
25.3674
27.6428
27.1813
23.914
19.581
16.8651
17.9283
23.1566
30.8368
37.9963
41.9921
41.9834
39.4422
37.3513
38.4655
43.5743
50.7719
56.2298
56.1466
48.8482
35.8599
21.2897
9.7932
4.21488
4.23282
6.79629
8.1274
6.13357
1.80228
-1.29181
0.849639
10.0191
24.222
38.1076
45.2778
41.3286
26.0996
4.04028
-17.4376
-30.8117
-31.2273
-18.09
5.02883
31.9689
56.3285
73.6823
82.8738
85.9163
86.5195
87.8139
90.2806
90.9779
84.6977
66.7687
36.2604
-2.12402
-38.7429
-62.3468
-64.6704
-44.1055
-6.61444
36.6006
73.5113
95.6007
100.165
89.8533
70.2053
46.8557
23.8601
3.61828
-12.2377
-22.1063
-24.5757
-19.3598
-8.18227
5.26482
16.539
22.26
21.4799
15.8145
8.30196
1.73706
-2.49254
-4.42796
-4.56751
-2.71661
2.41236
12.4358
27.7696
46.337
63.5096
73.6423
72.6331
60.2468
40.9025
22.2977
12.3103
15.5367
31.1019
52.8461
71.8885
80.436
75.0962
58.1902
36.5136
18.1968
9.17703
10.8931
20.147
30.9976
37.626
36.7765
28.7429
16.6883
4.88929
-3.10662
-5.57572
-2.66668
4.32044
13.8405
24.6784
36.0003
47.0376
56.7309
63.6179
66.068
62.7856
53.411
39.0213
22.343
7.50578
-0.761693
1.5777
16.4251
42.4958
75.2172
107.827
133.395
147.002
147.17
135.909
117.465
96.3999
75.9953
57.6384
41.3005
26.5885
13.6245
3.23213
-3.58028
-6.39396
-5.8459
-3.47002
-1.02328
0.278732
0.173897
-0.774217
-1.69442
-1.96562
-1.50118
-0.662558
0.0618849
0.370941
0.27513
0.00524993
-0.185647
-0.179886
-0.0268189
0.137933
0.205736
0.160515
0.0663629
0.00372643
0.00772271
0.0497266
0.0680056
0.020595
-0.077919
-0.161425
-0.157727
-0.0467136
0.107764
0.180263
0.0575764
-0.274567
-0.689838
-0.967742
-0.922154
-0.546116
-0.0750369
0.103095
-0.321745
-1.32179
-2.40534
-2.74441
-1.54429
1.51083
5.98548
10.7874
14.6393
16.7183
17.1248
16.8955
17.4982
20.0322
24.5426
29.8334
33.9261
34.98
32.2382
26.5334
20.0934
15.7275
15.7685
21.2477
31.6353
45.1804
59.5936
72.6866
82.6867
88.2016
88.0561
81.3074
67.5908
47.6571
23.7207
-0.769147
-22.0394
-37.2658
-45.575
-48.1791
-47.4648
-45.4531
-42.4675
-36.8089
-25.7238
-7.22078
18.2261
47.0429
73.4126
91.2775
96.5734
88.7117
70.7366
48.2168
27.4146
13.4313
8.86031
13.2098
23.1395
33.4435
38.6197
34.7034
20.8489
0.0538659
-21.4037
-35.8061
-36.5778
-20.7255
9.73409
47.8702
83.4674
105.759
106.579
83.1468
39.6873
-12.8038
-58.992
-83.5216
-76.0632
-35.2983
29.9219
103.096
165.592
203.057
210.057
191.009
157.189
121.415
92.9827
75.072
65.3983
59.1968
52.6113
44.6941
37.2731
33.2108
34.3384
40.2668
48.5582
55.9177
59.61
58.3882
52.6504
43.9846
34.4633
25.9999
19.9096
16.6946
16.0438
17.0426
18.5532
19.6378
19.8378
19.1814
17.9498
16.4018
14.6847
13.0096
11.9303
12.4193
15.5272
21.7024
30.16
38.7791
44.7728
45.9154
41.7142
33.8425
25.4928
19.8964
18.7514
21.4011
25.2307
27.104
25.085
19.5332
12.986
8.89389
9.88164
16.4425
26.7212
37.4434
45.4497
49.0077
48.2624
44.7105
40.1394
35.7376
31.8979
28.7364
26.8379
27.5553
32.463
42.1533
55.0973
67.4262
74.0726
70.9497
57.1606
36.0402
14.3022
-0.512962
-3.19808
6.83046
25.2293
44.5962
57.6529
60.2663
52.9391
40.1614
28.0448
21.4402
21.909
27.4284
33.8224
37.086
35.3865
29.7691
23.2968
19.1813
18.9612
21.7359
24.8662
25.7287
23.498
19.8691
18.191
21.3908
29.8311
40.4213
47.73
46.7687
36.1024
19.5533
5.31199
2.53571
16.8879
47.2198
85.2354
118.614
136.325
133.639
114.343
88.9353
69.5603
64.1665
72.8039
87.9744
98.8633
97.2518
81.9992
59.7189
41.2848
36.0349
46.7656
68.168
89.4783
99.8458
93.5219
72.1911
43.4479
16.5633
-1.9338
-10.4803
-11.6208
-9.07741
-4.90181
1.41555
11.456
25.2601
39.6603
49.0435
48.4038
36.905
19.5829
5.71846
4.3326
19.0811
45.4411
72.0478
85.8599
78.6944
51.7731
15.8015
-13.6616
-23.3714
-8.59539
24.7027
62.7385
90.3788
98.0169
85.5596
61.7576
39.4456
29.2051
34.5774
51.0144
68.8043
78.2738
74.5908
59.8776
41.8088
29.6155
29.5904
42.2618
62.4442
81.9143
93.248
92.9312
82.3715
66.5653
51.3269
40.61
35.2617
33.6838
33.8058
35.0593
39.074
48.5805
65.0985
86.8053
108.03
121.013
119.325
101.285
71.5423
39.7821
16.9432
10.6554
22.0551
45.4943
71.2297
89.7295
95.5174
88.8418
74.6445
59.6568
49.2404
45.4798
47.18
51.3665
55.214
57.3388
57.9573
58.1389
58.8259
60.257
62.0217
63.5175
64.3666
64.4921
63.8954
62.449
60.0053
56.8265
53.9816
53.238
56.238
63.2932
72.5759
80.4803
83.3262
79.6717
71.8456
65.4381
66.5016
77.6532
95.2732
109.819
109.796
87.8286
45.7505
-4.30586
-44.0092
-56.5803
-34.527
16.5558
80.1592
135.989
168.495
172.623
154.272
125.811
99.5117
82.4781
75.2987
74.2835
75.1634
75.7342
76.1143
77.1204
78.4715
78.3822
74.8432
67.5001
58.5427
51.7275
50.0454
53.5975
59.2096
62.1948
59.244
50.626
40.2722
33.6249
34.5123
42.9047
54.8617
64.6825
68.0134
64.1762
56.4712
50.3286
50.2955
57.398
68.2083
76.1515
74.5762
60.2875
35.9101
9.77058
-7.06079
-5.62417
16.2494
51.8233
87.4313
108.196
105.082
79.782
44.6231
17.0471
11.1235
30.4062
66.0005
101.058
119.411
113.703
88.5856
57.3101
33.8082
24.8979
27.131
30.0138
23.5642
5.61237
-15.6004
-25.242
-10.1441
33.0462
94.3547
153.68
189.262
187.31
148.215
86.523
24.8591
-15.3004
-21.9376
3.51114
47.8002
92.0583
119.65
122.403
102.82
71.7154
42.6793
26.0211
24.8726
34.9887
47.9636
56.001
55.762
49.4652
42.94
41.9165
48.6567
60.6883
72.1709
77.0127
72.0213
58.5021
41.6319
28.0769
23.1027
28.5035
42.1556
59.2107
74.2745
83.6109
86.5027
85.2851
84.097
86.8898
95.548
108.959
123.487
134.662
139.276
136.843
129.627
121.243
114.574
110.182
106.13
99.3111
87.5324
71.1316
53.2041
38.304
30.3607
30.9591
38.8636
50.9144
63.6597
74.7583
83.4456
89.999
94.7399
97.3268
96.8147
92.4146
84.4084
74.5615
65.6668
60.3791
59.9446
63.5522
68.7459
72.7754
74.2163
73.9423
74.7734
79.7799
90.0115
102.918
112.599
112.189
97.5262
70.2945
38.7563
15.1389
10.4249
28.8533
64.9746
105.154
133.295
138.287
119.511
87.4343
58.6743
47.7805
59.8379
87.7421
115.691
127.222
113.698
78.884
37.2191
6.68582
-0.0928252
17.944
49.7932
77.6674
85.3401
65.5403
23.1079
-27.2024
-66.9318
-81.2515
-64.4016
-21.3281
34.7249
87.4222
123.253
136.006
128.281
109.606
91.9993
84.8143
91.0717
106.884
124.164
135.208
136.721
131.133
124.513
122.341
125.7
130.259
128.808
115.936
92.0469
64.1834
42.935
37.0537
48.8067
72.7339
98.5255
116.359
121.672
116.772
108.631
104.419
107.507
116.164
125.325
129.958
127.729
119.397
107.062
91.8343
72.8406
48.4107
18.6488
-12.5379
-37.7084
-48.8015
-41.278
-17.1061
15.3336
44.6728
61.6632
63.3154
53.9062
42.378
37.5752
43.8501
59.2531
77.0485
89.5227
91.9422
84.6166
72.1795
60.7261
54.5052
