9.51486
8.65034
10.4419
14.8105
22.1932
33.1151
47.1465
61.9922
73.4551
76.8549
69.4209
52.3278
30.9503
12.9826
5.31552
11.033
28.2226
50.9819
72.0485
85.6109
89.1851
83.9476
73.842
63.834
57.8815
57.418
60.7812
64.0818
63.3637
57.1508
47.921
41.3453
43.4214
56.7096
77.8325
98.1836
107.68
99.865
75.4976
42.5243
12.6495
-3.82356
-1.94686
16.88
46.8294
80.7004
111.925
135.047
145.576
140.595
120.636
91.7172
65.1243
53.3625
63.9186
94.3569
132.239
160.748
167.346
150.641
121.235
95.9561
88.6228
102.731
130.087
155.707
165.995
155.567
129.248
98.6181
75.4435
65.8005
68.0246
75.0358
79.2358
76.8693
69.3258
61.0395
55.7373
54.04
54.0848
54.231
55.7564
62.5501
77.4812
98.2915
116.584
121.73
107.62
77.6378
44.0935
21.8006
19.7443
36.3008
61.1118
82.2071
93.2396
95.9537
96.8092
100.783
107.298
111.14
107.124
94.7136
79.0797
67.9819
66.8342
75.4236
88.3723
98.6772
101.714
97.283
88.969
81.7468
79.177
81.6229
86.2671
88.9288
86.7217
80.2589
73.7967
73.0873
81.511
97.0264
112.341
118.825
111.951
94.7
76.2245
66.3128
69.4726
82.3827
96.8122
105.634
107.278
105.61
105.491
107.588
106.907
96.7571
75.3256
49.7909
34.264
41.8865
75.6432
123.988
165.124
178.113
154.786
105.514
54.8721
29.0562
41.7574
86.5604
140.365
175.931
176.585
144.805
100.352
69.1492
69.5781
103.233
154.696
199.583
216.218
195.154
142.835
78.3713
25.1792
0.990697
10.3081
43.0228
79.4869
100.55
97.5997
77.1034
56.5656
54.0408
76.9796
117.119
154.741
169.912
154.09
115.113
72.9036
48.5394
53.2314
82.7762
120.405
146.136
147.429
125.299
93.5096
71.5558
74.863
106.795
156.841
205.619
233.947
231.973
203.837
165.567
137.063
132.135
151.638
182.931
206.121
204.577
174.244
126.608
83.7228
66.7899
84.3986
127.243
173.188
199.994
198.222
176.049
152.833
145.639
157.762
176.877
183.452
164.209
121.613
73.078
40.9128
39.9363
69.919
116.794
160.682
185.901
187.312
170.459
146.983
127.96
118.843
118.164
120.036
118.523
111.873
103.841
101.517
110.81
132.073
158.822
180.674
188.921
181.208
162.848
144.509
136.822
145.576
169.079
198.799
222.827
230.336
216.606
185.385
147.955
118.79
109.464
123.547
155.446
193.948
227.738
249.46
255.989
245.964
217.936
171.808
112.378
51.572
6.11684
-9.37593
9.44782
52.9651
101.335
133.92
138.612
116.04
77.2638
37.2193
8.37333
-2.20583
7.25742
34.3117
73.0861
114.887
149.638
169.349
171.92
162.823
152.039
148.232
153.199
161.28
162.712
150.174
122.81
87.0669
52.6604
28.4406
19.9389
29.0423
54.7264
92.8802
136.033
173.788
195.806
196.542
179.333
155.895
141.038
145.309
168.877
200.956
225.028
227.055
202.311
157.609
107.93
69.5518
52.762
57.5327
73.848
86.8387
84.6402
65.4303
39.3142
23.5417
32.7871
69.6744
121.378
165.104
179.862
157.999
109.482
56.3087
20.4994
13.1736
30.5353
58.6674
82.3976
93.2194
91.2284
82.7217
74.8227
72.4988
77.5322
89.5102
105.922
121.874
130.459
125.069
103.2
69.3672
34.4854
11.2373
7.60469
22.6779
47.5247
70.1804
81.9688
81.6529
74.5761
68.2746
67.612
72.3165
78.031
79.7799
75.4369
67.0884
59.5702
57.1293
60.6591
66.9983
70.7077
67.382
56.4713
41.9387
30.2225
26.8365
33.5668
47.7419
63.9641
77.0092
84.0046
84.957
81.9007
77.6447
74.6535
74.6354
78.2355
84.6806
91.476
94.8138
90.9865
78.3281
58.6677
37.1497
20.3407
13.5319
18.5791
33.2049
51.9777
68.4543
77.4568
76.6972
67.2825
53.1635
39.5435
30.9254
29.4345
34.1266
41.6869
48.2028
51.0874
49.9942
46.4369
42.5484
39.9016
39.0431
39.7309
41.1691
42.2661
41.8401
39.018
33.9111
28.2113
25.0632
27.6838
37.4047
52.2592
67.0448
75.3937
73.049
60.0477
40.8511
22.4141
11.1859
10.4969
19.7949
35.5905
52.9551
67.3781
75.6546
76.3543
69.8613
58.2703
45.0139
33.4458
25.7767
22.6395
23.6366
28.2161
36.0983
46.609
57.1874
63.211
60.1156
47.2655
30.8805
22.5232
32.8218
63.4593
102.986
130.666
127.486
87.9239
24.5294
-38.4705
-79.015
-89.3124
-78.0558
-61.5202
-50.151
-40.725
-20.2804
21.2082
79.2434
133.365
157.892
137.914
79.6281
7.62893
-48.7255
-71.2422
-60.9021
-33.9444
-9.97837
-0.579501
-5.06204
-14.3649
-19.1472
-15.203
-4.18031
9.54869
22.3284
32.4867
39.5373
42.4038
39.4041
29.6071
14.3235
-2.71836
-16.7119
-23.709
-22.3582
-14.143
-2.58663
8.20602
15.1101
16.9184
14.8795
12.3077
13.1234
19.7868
31.7601
45.3154
55.0249
56.417
48.3025
33.5769
17.8962
7.00334
4.2014
9.19836
18.619
27.8932
33.4923
34.3454
31.8839
28.7714
27.4195
28.9291
32.8741
37.7869
42.0097
44.2691
43.9608
41.1104
36.3357
30.7763
25.8801
23.0111
22.8675
24.9889
27.8906
29.7689
29.4586
27.231
24.8818
25.0075
29.5847
38.7052
50.094
59.7127
63.3532
58.677
46.7124
31.8935
20.2494
16.4734
21.4609
31.7091
41.2563
45.2527
43.0815
38.7973
38.2344
44.6713
55.8723
64.8335
64.0665
50.9281
30.3872
12.998
8.98267
22.1236
47.2163
72.9177
88.2347
88.4678
77.023
62.2042
51.4725
47.0147
45.494
41.6796
33.2135
22.861
16.7516
19.8451
32.1033
47.8542
58.8659
59.0472
47.8864
30.5424
14.9762
7.96475
12.1397
25.2044
41.2014
52.9862
55.0462
45.8653
29.0432
12.427
4.9775
12.4332
33.9075
61.7136
85.0636
95.8453
92.9558
82.4559
73.373
71.8909
77.7338
85.1575
87.5776
82.3602
72.3822
63.4347
59.7533
61.0127
62.9168
60.7921
53.2139
43.0742
35.3708
33.6374
37.7713
44.6078
50.5309
53.8776
55.4117
56.6577
57.76
57.0327
52.4656
43.909
34.1207
27.4457
26.8696
31.6901
37.7214
40.1795
37.3745
32.3665
31.0805
37.9558
52.1664
67.257
74.6546
69.1116
52.4502
32.9318
20.4699
20.9026
32.8218
48.7744
59.9075
60.9815
52.6611
40.2872
30.3673
27.3191
32.0964
42.6909
55.5201
66.6557
72.6083
71.1014
62.1813
48.9743
36.9531
31.6491
35.6699
46.9448
59.4446
66.4164
64.3279
54.7254
42.9168
34.4015
31.5535
32.7383
33.9959
32.2321
27.3718
22.0478
19.2439
19.904
22.3871
24.1086
23.9269
23.3222
25.3715
32.1766
42.7778
53.254
59.0509
57.9328
51.1953
42.5389
35.4053
30.6107
26.319
20.257
12.4013
5.98877
5.8185
14.9781
31.9767
50.6723
63.2006
64.315
54.5319
40.106
29.5203
28.668
37.4486
49.9004
57.8653
56.0787
45.4001
32.2733
24.6558
26.9325
37.0675
48.0803
52.9703
49.5491
42.0456
38.2036
43.6603
57.5623
72.487
79.0322
72.0214
54.0606
34.1613
22.2459
23.3342
35.0942
50.1225
61.0973
-2e-006
-2.1e-005
-7e-005
-0.000138
-0.000191
-0.000194
-0.000147
-0.000103
-0.000158
-0.000378
-0.000716
-0.00099
-0.000987
-0.000665
-0.00027
-0.000242
-0.000886
-0.00204
-0.003002
-0.002926
-0.001495
0.000511
0.001204
-0.001748
-0.010116
-0.018008
0.037757
0.131767
0.167585
0.035424
-0.266474
-0.5788
-0.653214
-0.308205
0.325491
0.726072
0.261118
-1.17799
-2.81761
-3.31494
-1.77615
1.18031
3.36678
2.3037
-2.68837
-9.11555
-11.8956
-5.99826
10.2548
33.4779
56.4867
72.0544
76.8267
72.848
65.9145
61.8478
63.1134
67.7339
70.8297
67.6104
56.0585
38.0279
18.5228
3.8407
-0.746703
7.08317
25.645
49.8028
72.7935
89.0665
96.7425
98.2161
98.5549
102.51
111.755
124.005
134.446
138.401
133.821
122.402
108.86
98.8047
96.2776
102.006
112.997
123.82
129.227
127.082
119.765
112.834
111.216
115.698
121.56
121.201
109.274
86.8827
61.8545
44.6232
42.1521
53.8396
71.9487
86.2546
89.7705
82.0597
68.6507
57.4104
54.2972
60.5752
72.334
82.1373
81.9067
66.0266
33.7989
-9.49881
-53.8615
-87.9841
-103.718
-99.1897
-79.317
-53.1566
-29.5678
-13.6078
-5.26905
-0.897946
3.87777
11.43
21.1438
30.3661
36.2866
37.7242
35.8308
33.3937
33.3111
37.2817
45.3129
56.2312
68.667
81.7265
94.8813
107.222
116.976
122.497
123.599
122.361
122.337
126.172
133.149
138.713
136.812
123.783
101.079
74.9254
52.9631
40.3763
37.9752
43.3173
53.5119
66.8304
82.7696
100.567
118.242
133.136
143.296
148.129
147.694
141.661
129.628
113.13
97.346
89.7838
95.1649
109.872
120.976
112.999
79.6607
32.3821
-1.76081
6.02751
67.7701
167.881
268.819
331.021
335.341
293.13
237.025
198.324
186.484
184.918
165.437
111.633
33.96
-34.0967
-56.3483
-17.4246
66.3371
155.542
209.944
210.167
166.149
108.738
71.118
71.6883
107.289
158.493
201.711
220.78
212.742
186.059
154.695
130.754
119.102
115.886
111.498
96.6832
68.8241
34.5821
7.0613
-1.47278
13.0277
43.7052
76.7695
99.634
107.454
103.958
96.6634
90.6174
85.9919
81.0665
77.2034
80.4699
97.5251
128.195
161.226
177.867
162.704
114.795
51.3482
0.338513
-14.4355
13.7872
71.1919
131.402
169.868
175.801
155.249
124.888
101.479
93.6378
99.7719
111.604
119.726
117.697
103.484
79.0518
49.4118
21.5459
2.77173
-1.71166
8.83844
29.903
53.5013
71.813
80.6442
80.7813
76.4815
72.2174
70.1875
69.9236
69.9427
69.7044
70.4673
74.3072
82.1776
92.3627
100.6
101.849
92.9324
74.6115
52.049
33.2601
26.0852
34.9747
58.7724
90.623
120.46
139.026
141.869
131.082
114.026
99.4572
93.1343
95.2379
100.94
103.692
99.1568
87.5078
72.9255
60.8141
54.5817
53.8395
54.9075
53.0661
45.2731
31.8607
16.4354
4.0976
-1.07407
2.04315
11.1964
21.9234
29.7135
32.0071
29.0694
23.391
18.0181
14.9087
14.1902
14.6103
14.6935
13.7852
12.3887
11.5578
11.9842
13.3887
14.6739
14.6599
12.8759
9.85284
6.8203
4.95141
4.70087
5.6691
7.00512
7.96686
8.32915
8.35519
8.48456
8.98716
9.78549
10.4876
10.5973
9.78785
8.05959
5.78608
3.61185
2.23247
2.08582
3.14455
4.99239
7.05312
8.91185
10.4941
11.9783
13.532
15.0904
16.3082
16.7277
16.1086
14.572
12.5076
10.3015
8.12455
5.85447
3.25104
0.320596
-2.2774
-3.04845
0.071924
8.78594
23.1108
40.3629
55.2446
61.508
54.7995
35.3121
8.67849
-15.8011
-29.0312
-26.1948
-8.97088
15.4272
37.7168
50.6749
51.8074
43.4115
30.4976
18.0408
9.08529
4.3638
3.07495
3.89378
5.62069
7.33289
8.34094
8.26309
7.21917
5.83467
4.92217
5.04535
6.16909
7.66313
8.71122
8.77392
7.87682
6.53754
5.44131
5.07457
5.62029
6.9882
8.94694
11.2155
13.5463
15.7464
17.7585
19.6827
21.7498
24.1699
26.9527
29.7869
32.0964
33.2648
32.9694
31.41
29.2496
27.2668
25.9195
25.0349
23.8625
21.5074
17.5024
12.2422
6.91428
2.93674
1.22452
1.68876
3.29022
4.6351
4.76015
3.63387
2.09759
1.27597
1.85143
3.65741
5.79904
7.23169
7.38176
6.40984
5.03788
4.06565
3.9241
4.52483
5.46414
6.36093
7.07451
7.68419
8.26052
8.68189
8.66077
7.95776
6.64997
5.18508
4.18941
4.08849
4.8151
5.79842
6.31924
5.96763
4.92787
3.90898
3.70484
4.65417
6.40593
8.11511
8.92211
8.43868
6.93855
5.14261
3.75048
3.06928
2.94647
3.01382
3.02438
3.00095
3.13779
3.57057
4.19913
4.72258
4.87739
4.63635
4.27847
4.25039
4.93707
6.45107
8.57856
10.8678
12.8309
14.1428
14.7071
14.6171
14.0158
13.0238
11.6944
10.0904
8.35082
6.69093
5.23232
3.85856
2.35835
0.855266
0.325638
2.61049
9.55879
21.4593
35.7275
46.9738
49.0072
38.0911
15.716
-11.0096
-32.0202
-38.8934
-28.9545
-6.59918
18.9789
38.3368
46.0393
42.4105
32.177
21.2031
13.4275
9.62292
8.2244
7.17232
5.39629
3.18229
1.47566
0.969269
1.65472
2.9715
4.29605
5.31568
6.03203
6.5609
6.91758
7.00258
6.74191
6.2549
5.81861
5.69312
5.93394
6.41163
6.93034
7.46823
8.28646
9.8086
12.3405
15.7919
19.6483
23.1735
25.8043
27.4291
28.3768
29.1136
29.8999
30.6104
30.8684
30.3562
29.0877
27.3987
25.6693
24.0486
22.3302
20.1222
17.2031
13.7711
10.4087
7.76206
6.17847
5.51816
5.2633
4.86043
4.029
2.84963
1.6162
0.624532
0.02112
-0.180481
0.027282
0.713276
1.9225
3.56881
5.30131
6.65211
7.24575
7.04338
6.40066
5.89147
5.99908
6.85807
8.15467
9.29045
9.67501
9.01655
7.51142
5.81062
4.78639
5.13585
7.00688
9.82822
12.4977
13.8665
13.3422
11.217
8.54382
6.56998
6.07552
6.97046
8.43995
9.52231
9.71466
9.26685
8.90125
9.25451
10.3787
11.6562
12.2246
11.5445
9.75818
7.62884
6.02647
5.44761
5.79406
6.5594
7.20502
7.49261
7.50899
7.44437
7.37233
7.23843
7.02969
6.95535
7.40969
8.72755
10.893
13.3836
15.3554
16.0553
15.249
13.3311
11.0916
9.30665
8.33446
7.89937
7.2748
5.77984
3.40709
1.29212
1.60051
6.58717
17.0621
31.0473
43.6488
48.7022
41.7525
22.8666
-2.35219
-24.668
-35.2487
-29.9076
-11.1602
13.0644
33.3549
43.2094
41.5426
32.1605
20.9352
12.5128
8.44152
7.46293
7.22626
6.1265
4.08481
2.12891
1.2994
1.86277
3.22399
4.48654
5.08622
5.13399
5.1987
5.79783
6.99419
8.3257
9.15122
9.07267
8.22851
7.24008
6.8985
7.72081
9.68569
12.2808
14.8276
16.8712
18.4439
20.0365
22.2598
25.424
29.2683
32.9929
35.6287
36.5356
35.7442
33.9557
32.1536
31.0438
30.6855
30.4805
29.5891
27.4731
24.2291
20.5611
17.3575
15.2028
14.0984
13.529
12.791
11.3764
9.18125
6.50626
3.85424
1.72711
0.494804
0.304488
1.03041
2.3031
3.58479
4.36197
4.36379
3.75642
3.06561
2.90119
3.57535
4.8472
6.03158
6.38327
5.5676
3.9227
2.28428
1.56956
2.28329
4.26463
6.80108
9.02337
10.2854
10.3528
9.38838
7.7934
6.0472
4.59845
3.83427
3.98559
4.99566
6.43958
7.58106
7.70203
6.52318
4.5161
2.82832
2.80061
5.19306
9.61948
14.5385
17.8712
18.0818
15.0086
10.0208
5.37178
3.03069
3.71112
6.55729
9.71817
11.4648
11.0774
9.0615
6.65324
4.99445
4.5039
4.85271
5.44869
5.9657
6.59835
7.81801
9.94027
12.8196
15.8648
18.318
19.5577
19.3017
17.5814
14.6692
11.1143
7.64207
4.93783
3.37071
2.78207
2.69577
2.93202
4.20133
8.00777
15.6328
26.5962
37.7139
43.8018
40.0787
25.164
2.80905
-19.026
-31.6339
-29.7762
-14.3558
7.95858
28.1695
39.2305
39.0494
30.6023
19.5317
10.8706
6.7872
6.41953
7.36517
7.60092
6.59383
5.10881
4.19056
4.23423
4.77813
5.00657
4.51235
3.69267
3.46914
4.58602
6.94386
9.49179
10.7525
9.70944
6.49063
2.42642
-0.515609
-0.708899
2.31467
7.74557
13.93
19.1135
22.2068
23.0425
22.1912
20.5427
18.9272
17.9468
17.933
18.9822
20.9476
23.4941
26.064
27.9673
28.5343
27.3131
24.2202
19.6582
14.5043
9.84963
6.6884
5.46287
5.78847
6.54294
6.39978
4.54248
1.19845
-2.35727
-4.44489
-3.85025
-0.469871
4.68093
10.0492
14.2782
16.7023
17.3445
16.5782
14.7632
12.1892
9.21736
6.4451
4.63445
4.40872
5.92143
8.75535
12.0741
14.9027
16.4568
16.3504
14.7158
12.266
10.1232
9.54424
11.3411
15.3725
20.4156
24.6014
26.3053
24.9554
21.2895
16.8867
13.3286
11.4164
10.9417
11.0768
11.0424
10.4858
9.53756
8.56878
7.90614
7.72624
8.12246
9.15204
10.7571
12.6284
14.1267
14.4804
13.1712
10.2144
6.28181
2.50218
0.057236
-0.23843
1.72996
5.31851
9.26288
12.1529
13.0019
11.7619
9.48756
7.92232
8.67043
12.3265
17.9768
23.5047
26.5544
25.7124
21.2358
14.9575
9.39529
6.51464
6.73872
8.82316
10.6731
10.7821
9.53354
9.53752
14.4829
26.8366
45.5663
65.4247
78.4777
77.7183
60.8963
32.4912
2.43301
-18.0875
-21.6972
-8.0906
16.1243
40.798
57.0015
60.593
53.0827
39.8027
26.7729
18.0744
14.8728
16.0154
19.4316
23.3208
26.607
28.751
29.4134
28.3862
25.7152
21.941
18.1232
15.503
14.9568
16.5149
19.3105
22.0299
23.6213
23.8671
23.4477
23.4729
24.6964
27.0115
-0
-2e-006
-5e-006
-1e-005
-1.5e-005
-2.3e-005
-3.4e-005
-4.3e-005
-4.4e-005
-4e-005
-4.1e-005
-6e-005
-0.000102
-0.000157
-0.000196
-0.000194
-0.00015
-0.000106
-0.000126
-0.000238
-0.000405
-0.000523
-0.000508
-0.000406
-0.000473
-0.000684
0.003112
0.00884
0.006271
-6.3e-005
0.004602
0.00377
-0.024403
-0.072363
-0.113494
-0.108189
-0.047776
0.032411
0.061532
-0.041179
-0.270606
-0.495484
-0.52456
-0.269078
0.132607
0.347352
0.0895
-0.571313
-1.04917
-0.417112
2.08171
6.45657
11.6856
16.0463
17.8492
16.3442
12.2141
7.33607
3.90605
3.36397
5.72548
9.6274
13.1548
14.8093
14.2315
12.2412
10.2252
9.30774
9.85958
11.532
13.6948
15.9365
18.1685
20.3588
22.177
22.9315
22.0145
19.5387
16.6684
15.2305
16.6615
20.9927
26.6343
31.2121
32.9739
31.844
29.4802
28.1078
29.0257
31.646
33.8454
33.3634
29.3066
22.8156
16.4394
12.5537
11.8919
13.1266
13.9436
12.986
11.478
13.2833
22.911
42.3527
68.41
92.4834
103.588
93.4365
61.2173
15.2675
-29.625
-58.314
-61.8116
-41.1117
-6.26327
28.6239
51.6937
57.7992
49.2799
33.3111
17.6308
7.16974
2.89587
2.84313
4.19435
5.01258
4.87944
4.48259
4.79059
6.33512
8.95258
11.9857
14.7006
16.6496
17.8518
18.6481
19.5115
20.7031
22.1313
23.4498
24.3615
24.9824
25.9356
28.0971
32.0393
37.5139
43.3579
47.9798
50.2609
50.2825
49.4236
49.6585
52.4047
57.6024
63.6446
68.1908
69.4687
67.1488
62.376
56.9216
52.0691
47.9784
43.873
38.7654
32.3083
25.0933
18.2989
12.98
9.46706
7.35031
5.82493
4.22994
2.37642
0.517619
-0.966654
-1.77863
-1.8347
-1.17684
0.140745
2.04057
4.42329
7.10297
9.79588
12.2161
14.1633
15.5881
16.6375
17.6577
19.1065
21.3529
24.3555
27.4367
29.3862
29.0257
25.9558
21.1096
16.5547
14.5174
16.0838
20.3913
24.8968
26.6941
24.1395
17.8404
10.3562
4.76472
2.987
4.81863
8.19678
10.4771
9.91781
6.51783
1.87231
-1.86544
-3.10656
-1.57927
1.65539
4.83554
6.35091
5.475
2.58587
-1.11462
-4.13498
-5.24066
-3.93229
-0.457203
4.30248
9.2624
13.4557
16.0952
16.6701
14.9827
11.2841
6.39871
1.70697
-1.24776
-1.50942
0.583316
3.40138
4.96549
4.61432
4.31303
8.47033
21.6972
45.3736
75.1411
101.171
111.91
99.7803
65.8329
20.529
-20.2138
-41.9771
-38.22
-12.7767
22.4975
53.5517
70.2424
69.7242
55.9998
36.6452
18.8595
6.90535
1.61156
1.4523
4.1014
7.52073
10.3573
11.9179
12.0888
11.2505
10.07
9.24118
9.19934
9.90814
10.9591
11.8228
12.2108
12.2532
12.3292
12.8296
13.9671
15.7786
18.2239
21.3533
25.2947
30.0981
35.5202
41.0358
46.044
50.1899
53.5663
56.6305
59.8625
63.3402
66.6746
69.2054
70.4328
70.304
69.1486
67.3568
65.0131
61.7894
57.1529
50.9593
43.7535
36.696
31.0398
27.4917
25.7356
24.5625
22.474
18.5556
13.0659
7.33504
3.09424
1.51154
2.50541
4.75917
6.45305
6.2599
3.99456
0.581299
-2.61359
-4.61907
-5.31735
-5.26676
-5.09733
-4.96077
-4.45333
-3.07825
-0.823042
1.56184
2.89255
2.25838
-0.379271
-4.07759
-7.42666
-9.3459
-9.58723
-8.73096
-7.69234
-7.15804
-7.27247
-7.76552
-8.25259
-8.49876
-8.51931
-8.45927
-8.4504
-8.51895
-8.60387
-8.61216
-8.48326
-8.17219
-7.72222
-7.20144
-6.616
-5.72959
-4.02644
-0.849787
4.20278
10.881
18.0464
23.919
26.7685
25.7947
21.6239
16.1721
11.8146
10.1119
10.9271
12.4664
12.4969
10.3143
8.20793
11.2537
24.9072
51.3066
86.291
119.276
136.993
129.742
97.0137
49.1448
3.60232
-22.6676
-20.9001
5.72877
44.2356
78.4647
96.5549
95.3798
80.1285
60.0196
43.1039
33.049
28.9202
27.3849
25.3804
21.6957
16.9389
12.5168
9.63538
8.71764
9.3745
10.7542
11.8504
11.8198
10.2586
7.40693
4.07361
1.32403
-0.13718
-0.28837
0.278986
0.953707
1.69583
3.2659
6.83062
12.9778
21.0409
29.0726
34.7011
36.4286
34.5252
31.0115
28.6011
29.3253
33.5748
40.007
46.3517
50.5633
51.6526
49.8402
46.2053
42.0356
38.3468
35.6593
34.0372
33.2188
32.7506
32.0923
30.7485
28.3999
25.025
20.9664
16.8589
13.4111
11.1215
10.0731
9.89324
9.92606
9.61415
8.77967
7.68797
6.88615
6.77987
7.30383
7.91447
7.92544
6.95567
5.26231
3.6387
2.93744
3.47552
4.75003
5.73409
5.55426
4.05707
1.95535
0.379562
0.083046
0.977655
2.21768
2.87211
2.67801
2.26968
2.69888
4.60265
7.60025
10.4546
11.9433
11.827
11.0643
11.2381
13.49
17.6597
22.3356
25.7328
26.7778
25.7317
23.8463
22.4812
22.2401
22.7177
22.8905
21.847
19.329
15.7506
11.8353
8.20699
5.26294
3.36541
3.20794
5.8606
12.3381
22.7393
35.475
47.2194
53.9141
52.5638
42.9982
28.6001
15.2941
9.07786
13.2006
26.5123
43.9041
58.5499
64.9737
61.2358
49.29
33.6007
18.8756
8.26541
2.67881
1.27761
2.4603
4.7639
7.21665
9.34069
10.9568
12.0679
12.707
12.9075
12.7383
12.2777
11.6522
11.0696
10.8056
11.1874
12.4063
14.483
17.1541
19.8652
21.8442
22.365
21.2491
19.2453
18.0321
19.4946
24.5394
32.0228
38.7532
40.8742
36.1611
25.8358
14.6166
8.61014
12.0496
24.7888
42.1048
57.0476
64.0085
61.4183
52.0317
40.8564
32.2212
27.724
26.1563
25.0893
22.81
19.2726
15.6447
13.1623
12.151
11.9408
11.5246
10.3706
8.62747
6.85833
5.5251
4.76439
4.5134
4.76387
5.62649
7.02995
8.4124
8.79999
7.37506
4.195
0.476198
-1.85953
-1.24716
2.48468
7.87002
12.4712
14.2344
12.6028
8.84797
5.39019
4.54933
7.3622
13.133
19.76
24.6917
26.0786
23.5626
18.4285
13.0172
9.60805
9.27847
11.3286
13.6741
14.1227
11.7817
7.73504
4.55113
4.72595
9.08845
16.1371
22.7783
25.9929
24.4275
18.9728
12.0516
6.16101
2.61247
1.14641
0.442592
-0.755005
-2.60813
-3.75397
-1.77661
5.54242
18.6713
35.1912
49.9542
56.808
51.4093
33.8073
9.3063
-13.3019
-25.4386
-22.6177
-6.46965
16.1726
36.6557
48.3809
49.2218
41.4781
29.7979
18.5952
10.4104
5.75617
3.95615
4.13241
5.59665
7.71948
9.73505
10.846
10.6192
9.34863
7.93803
7.33115
7.89551
9.1837
10.2842
10.5231
10.0214
9.63135
10.3487
12.6056
15.9134
19.1437
21.2292
21.8351
21.5965
21.7079
23.254
26.606
31.3208
36.3979
40.7481
43.6404
44.8446
44.5665
43.3475
41.8715
40.7503
40.2927
40.314
40.1987
39.2274
37.0848
34.0724
30.9224
28.2773
26.1515
23.8673
20.5456
15.8353
10.4289
5.80427
3.4616
4.03837
6.87737
10.4057
12.993
13.7463
12.786
10.8891
8.91345
7.33619
6.18224
5.32853
4.79539
4.7861
5.52105
6.96009
8.67392
9.96261
10.2027
9.17003
7.22727
5.21356
4.06401
4.34668
5.9253
8.04134
9.72064
10.389
10.2204
9.96747
10.4467
11.9008
13.7541
15.0042
14.8943
13.4616
11.5073
10.0293
9.61259
10.1755
11.2084
12.3384
13.6143
15.4058
17.9211
20.8083
23.1272
23.815
22.3015
18.8461
14.443
10.311
7.298
5.54051
4.60005
3.96601
3.73951
5.02499
9.61116
18.8423
32.1903
46.4276
56.2006
56.2254
44.2172
22.9202
-0.218098
-16.0428
-17.9768
-5.39027
15.943
36.664
48.3939
47.6102
36.75
22.1855
10.5058
5.27741
5.95743
9.2038
11.3979
10.715
7.72341
4.4539
2.82958
3.548
5.89503
8.43781
9.97079
10.1142
9.22695
7.98727
6.89057
6.09349
5.57059
5.3759
5.74594
7.02892
9.41092
12.7564
16.6108
20.3739
23.5834
26.0406
27.8354
29.2176
30.4462
31.6933
33.0081
34.3288
35.5293
36.4724
37.0151
37.0265
36.3671
34.9297
32.6951
29.7991
26.5655
23.4328
20.7627
18.6498
16.8568
14.9453
12.5582
9.64851
6.53801
3.76324
1.77384
0.753547
0.607099
1.05651
1.83109
2.70424
3.46286
3.89734
3.84499
3.31149
2.53764
1.9419
1.91218
2.61851
3.92632
5.51125
7.00009
8.08652
8.57971
8.38531
7.55054
6.35131
5.27625
4.86129
5.37
6.55066
7.67902
7.94077
6.97091
5.16426
3.49521
2.94336
3.86891
5.7978
7.74124
8.84929
8.90875
8.39128
7.99338
8.17176
8.93012
10.0405
11.3577
12.9833
15.1138
17.5863
19.6604
20.222
18.4195
14.2765
8.88567
3.96228
0.980419
0.419175
1.55345
3.00728
3.79719
4.28672
6.29027
12.0785
22.6703
36.3175
48.3254
52.7563
45.4094
26.6242
2.11913
-18.9899
-28.2134
-21.7989
-2.59407
21.3544
40.7086
49.1367
45.6668
34.2027
20.8118
10.5593
5.62955
5.33871
7.43148
9.65705
10.6097
9.8274
7.503
4.18981
0.67737
-2.11816
-3.44126
-2.97452
-0.961587
2.00922
5.32846
8.61772
11.6894
14.2454
15.6982
15.348
12.9048
8.98234
5.08343
3.04375
4.15132
8.5268
15.0659
21.9965
27.7105
31.3994
33.1722
33.747
33.9832
34.4699
35.3187
36.1996
36.5009
35.6362
33.3578
29.974
26.3218
23.4049
21.8922
21.7129
22.0395
21.7136
19.8869
16.5372
12.4709
8.83185
6.43448
5.38082
5.10114
4.87304
4.29222
3.47261
2.84104
2.70786
2.99212
3.30331
3.31659
3.0895
3.07999
3.81423
5.41496
7.38115
8.76184
8.67693
6.89091
4.03984
1.36016
0.098321
0.837334
3.20865
6.11404
8.27931
8.89782
7.98367
6.28994
4.85992
4.48414
5.32563
6.91965
8.4954
9.39985
9.4129
8.76782
7.98664
7.53208
-0
-0
-1e-006
-2e-006
-4e-006
-8e-006
-1.6e-005
-2.4e-005
-3e-005
-3e-005
-2.9e-005
-3.5e-005
-5.5e-005
-8.6e-005
-0.000117
-0.000132
-0.000126
-0.000112
-0.000118
-0.000165
-0.00025
-0.000336
-0.000377
-0.000357
-0.000327
-0.000341
0.000299
0.00185
-0.001803
0.000788
0.007415
0.015181
0.006886
-0.015631
-0.055508
-0.075298
-0.057127
-0.016489
0.01479
-0.010678
-0.108807
-0.234291
-0.30385
-0.244597
-0.085167
0.05227
0.018238
-0.233484
-0.572739
-0.695159
-0.237003
1.0669
3.23025
5.97546
8.7996
11.128
12.5207
12.8094
12.1389
10.8893
9.52635
8.40479
7.68299
7.34045
7.29594
7.55079
8.2727
9.76667
12.3715
16.2977
21.4809
27.5199
33.7196
39.2515
43.4255
45.9459
47.0208
47.2768
47.441
48.0012
48.8779
49.507
49.1136
47.1666
43.6359
39.0905
34.3319
30.0278
26.4646
23.4483
20.4543
17.0156
13.0173
8.90624
5.58272
4.00652
4.6211
6.92501
9.51789
10.77
9.79576
7.10829
4.41978
3.59539
5.33874
8.54262
10.8918
10.3569
6.63312
1.50684
-2.16035
-2.26078
1.20866
6.15468
9.7499
10.2152
7.8481
4.61191
2.74907
3.331
5.73588
8.33758
9.72015
9.57076
8.70023
8.23784
8.68235
9.56227
9.82649
8.70059
6.29077
3.60971
1.93298
1.98068
3.47721
5.37876
6.51398
6.29996
5.03843
3.61298
2.85392
3.09667
4.07849
5.34529
6.77914
8.76599
11.8765
16.2651
21.2679
25.5268
27.599
26.6931
23.0887
18.0185
13.0874
9.70568
8.67726
10.0061
12.8194
15.5448
16.5064
14.9396
12.0739
11.3768
17.2973
32.6296
55.9018
80.5447
97.0381
97.3782
79.5695
49.4842
18.6237
-1.217
-3.55413
9.99367
31.1478
49.5974
57.9943
54.714
43.3132
29.5994
18.3925
11.6812
8.79528
7.77612
6.87709
5.36286
3.48269
1.97813
1.60193
2.74878
5.24652
8.35281
10.9884
12.1644
11.4582
9.30394
6.84468
5.3989
5.78203
7.90911
10.9083
13.6746
15.404
16.026
16.138
16.6482
18.3042
21.3811
25.6073
30.3012
34.6632
38.0636
40.2651
41.4504
42.0514
42.4536
42.6915
42.3859
40.9454
37.9587
33.5739
28.5818
24.0529
20.7781
18.836
17.5812
16.0682
13.6607
10.4552
7.16495
4.61612
3.16697
2.53051
2.04177
1.22704
0.226354
-0.247408
0.583213
2.9825
6.40111
9.709
11.797
12.1726
11.1885
9.78452
8.95509
9.21019
10.3552
11.6843
12.4357
12.248
11.3512
10.3937
10.0537
10.6053
11.7534
12.8069
13.111
12.4699
11.3094
10.4622
10.6614
12.0632
14.0844
15.6676
15.8538
14.3076
11.5088
8.52591
6.41655
5.67331
6.05117
6.78855
7.12357
6.7621
6.02136
5.52638
5.72365
6.56963
7.55698
8.08689
7.83841
6.97113
5.91575
5.03031
4.41856
4.04619
3.98696
4.62711
6.47559
9.77988
14.152
18.4785
21.2971
21.4621
18.7277
13.8998
8.48517
4.01192
1.31669
0.201035
-0.297376
-1.02224
-1.69514
-0.441516
5.55867
18.2808
36.7764
56.1656
68.8189
67.6713
50.171
20.6186
-10.8575
-32.5235
-36.4621
-22.3296
2.66369
27.5574
42.9607
45.0898
36.5035
23.6124
12.7355
7.11355
6.26892
7.49669
8.13869
7.15177
5.24444
3.85176
3.92665
5.37293
7.2605
8.53583
8.68134
7.90772
6.8977
6.33253
6.54429
7.50234
9.00089
10.8188
12.7903
14.7435
16.4209
17.5853
18.2059
18.6426
19.596
21.7523
25.3573
29.9575
34.5414
38.0809
40.1293
41.0937
41.9574
43.5953
46.1276
48.7557
50.2143
49.5793
46.8648
43.0008
39.2023
36.1301
33.5265
30.5358
26.5109
21.7254
17.3373
14.6761
14.2425
15.215
15.848
14.5741
11.0217
6.34384
2.54078
1.22171
2.67842
5.76129
8.62219
9.8172
9.02741
7.01248
5.00435
3.9165
3.95062
4.70923
5.56959
6.0464
5.99241
5.55074
5.01358
4.76201
5.18319
6.49927
8.57583
10.8422
12.4626
12.7081
11.4164
9.18115
7.08725
6.15223
6.71703
8.22218
9.52366
9.58593
8.13216
5.8431
3.96746
3.57664
4.90386
7.17167
9.05421
9.43988
8.0995
5.74886
3.60154
2.65857
3.1845
4.67541
6.26678
7.30432
7.59228
7.38339
7.06756
6.88873
6.92176
7.19978
7.87538
9.19627
11.2365
13.6588
15.6299
16.1489
14.5525
10.973
6.36083
2.05194
-0.921069
-2.34095
-2.70547
-2.55672
-1.60224
1.55111
8.60768
20.0444
33.7331
44.8731
47.8065
39.0297
19.7034
-3.92898
-22.8942
-29.5839
-21.4325
-2.15339
20.1546
36.9714
43.1542
38.6767
27.6842
15.7542
7.11201
3.21347
3.04366
4.42803
5.45774
5.26134
3.98988
2.39103
1.32092
1.37334
2.63444
4.64805
6.6253
7.81855
7.94381
7.35619
6.86415
7.21652
8.60373
10.5634
12.2563
13.064
12.9925
12.6545
12.8868
14.278
16.8848
20.2957
23.9649
27.4756
30.6125
33.2789
35.3467
36.6685
37.181
37.0085
36.4377
35.7589
35.0721
34.2072
32.855
30.8077
28.1386
25.1901
22.3704
19.9416
17.8889
16.003
14.0575
11.977
9.85102
7.87886
6.20948
4.88369
3.88826
3.25925
3.10158
3.53304
4.57442
5.98295
7.31046
8.02698
7.77357
6.57878
4.89864
3.48025
3.07483
4.07482
6.32613
9.11295
11.4171
12.3513
11.5821
9.49337
7.0905
5.51916
5.54887
7.19763
9.77439
12.2839
13.9093
14.3782
13.9455
13.0974
12.1814
11.2128
10.0241
8.54312
7.01484
5.92999
5.71168
6.38687
7.52543
8.4905
8.836
8.58419
8.15835
8.03872
8.42428
9.1202
9.70941
9.84625
9.43799
8.5697
7.31696
5.72807
3.9827
2.60927
2.50726
4.51161
8.8312
14.6018
19.9903
22.992
22.5054
18.9775
14.2043
10.3433
8.70522
8.97786
9.48266
8.30435
4.75474
0.279878
-1.74481
2.39321
14.5635
33.0127
52.1357
64.3376
63.2913
47.26
20.6429
-7.32564
-26.3515
-29.6312
-16.8305
5.96102
29.28
44.7337
48.4853
42.134
30.9103
20.4675
14.1648
12.1501
12.3498
12.3223
10.8365
8.26672
5.92215
4.93023
5.52296
7.03581
8.42642
9.02715
8.89138
8.62702
8.9138
10.0456
11.8112
13.7316
15.3971
16.6873
17.7879
18.9158
20.0993
21.1599
21.9326
22.515
23.2926
24.7087
26.905
29.4939
31.7399
32.9869
33.1081
32.568
32.0595
31.9861
32.0911
31.5972
29.785
26.5648
22.6783
19.3266
17.4417
17.0883
17.346
16.8551
14.6459
10.7602
6.2946
2.81925
1.47948
2.36551
4.46293
6.20037
6.30691
4.4466
1.33935
-1.73357
-3.62242
-3.84908
-2.74514
-1.10152
0.312747
1.13048
1.4281
1.53898
1.72516
2.00713
2.23444
2.24557
2.08839
2.00633
2.29981
3.08704
4.19976
5.25112
5.85139
5.89829
5.66661
5.64564
6.18243
7.18084
8.11032
8.31759
7.49311
5.99963
4.74194
4.64385
6.00007
8.22383
10.0896
10.4992
9.13237
6.6488
4.25122
2.93304
2.93553
3.73881
4.58092
5.05476
5.27579
5.64002
6.37651
7.29475
7.92866
8.01572
7.808
7.99191
9.28912
11.8866
15.1644
17.8959
18.7852
17.0579
12.8563
7.1721
1.33522
-3.64779
-7.47382
-10.3671
-12.2942
-12.1842
-7.95462
2.27337
18.2553
36.1834
49.1651
50.0569
35.4184
8.38354
-21.6278
-42.741
-46.2242
-30.8354
-3.44628
24.4782
42.4916
45.8196
36.6139
21.6766
8.25249
0.621209
-0.985979
0.926615
3.41778
4.81163
5.0452
4.84585
4.78347
4.84715
4.69435
4.16956
3.60809
3.62562
4.60512
6.36106
8.123
8.99142
8.53018
7.04551
5.44768
4.77591
5.68934
8.13889
11.4888
14.9015
17.711
19.6965
21.0502
22.1641
23.3798
24.8483
26.4853
28.052
29.3166
30.1709
30.7069
31.1948
31.9068
32.8756
33.7191
33.6952
32.0311
28.3754
23.1615
17.5956
13.1987
11.0651
11.323
13.0547
14.771
15.1629
13.7295
10.9234
7.75224
5.1199
3.41093
2.45347
1.89572
1.60304
1.7578
2.54311
3.74045
4.57665
4.0957
1.84735
-1.58783
-4.67899
-5.7141
-3.8004
0.532854
5.53734
9.22984
10.4722
9.4872
7.56645
6.08534
5.66843
5.95935
6.12641
5.70296
5.04968
5.10372
6.61086
9.39163
12.2063
13.4099
11.9537
8.12098
3.49339
0.102605
-0.656721
1.26619
4.62462
7.6382
8.97481
8.38738
6.68583
5.16011
4.81107
5.82898
7.57862
9.05562
9.52964
8.98737
8.12801
8.00981
9.47691
12.6409
16.7221
20.3352
22.0839
21.2055
17.9817
13.6037
9.58392
6.95162
5.73138
5.11297
4.37746
3.96415
5.84924
12.6781
25.8225
43.51
60.3932
69.2639
64.3981
44.8469
15.782
-13.1134
-31.654
-33.5473
-19.0523
5.40927
30.3739
47.4806
52.6457
46.9459
35.1624
22.9938
14.5001
10.8335
10.5807
11.2076
10.6804
8.454
5.43549
3.17187
2.81771
4.4859
7.35161
10.259
12.4007
13.6006
14.0739
14.0316
13.4439
12.1875
10.3624
8.57488
7.85817
9.19007
12.9837
18.7857
25.4206
31.3997
35.4996
37.2309
37.0557
36.2643
36.4884
38.9579
43.847
50.0402
55.5837
58.6305
58.3928
55.4371
51.1545
46.7128
42.1992
36.7434
29.4622
20.6749
12.3284
7.18382
7.13355
11.7439
18.1225
22.363
21.7826
16.5376
9.52276
4.58445
4.16276
7.86463
12.8051
15.4927
13.963
8.83961
2.72162
-1.54931
-2.53993
-0.819458
1.77165
3.52973
3.86993
3.42262
3.27838
4.04957
5.52799
7.04101
8.17141
9.15001
10.6336
12.9611
15.508
16.8759
15.8607
12.5762
8.85029
7.33983
9.75531
15.3591
20.9093
22.3943
17.6596
8.2093
-1.19473
-5.11327
-0.728715
10.3208
22.7722
30.8893
31.8526
27.2769
21.8705
20.2569
24.0828
31.2145
37.4255
39.2573
36.0836
30.1441
24.7257
21.9699
28.8156
32.4992
34.5704
35.3374
35.717
37.0551
40.3898
45.3685
49.5626
49.2082
41.5839
27.7865
13.5655
6.77104
12.3599
28.1152
44.8848
51.9933
44.9231
29.8299
20.9961
31.8134
64.719
107.166
137.175
135.649
98.2057
38.8573
-16.8785
-45.253
-36.0887
3.5131
54.5806
96.7063
117.039
113.671
93.3088
66.2046
41.8661
26.7104
23.3783
30.6877
43.8506
55.7235
59.4107
51.5393
34.0166
13.1355
-3.56235
-10.6185
-6.4356
7.24892
27.3452
50.9548
75.3332
96.8783
110.908
113.028
101.775
80.8092
58.8332
46.6116
52.3686
77.8375
117.176
159.146
191.675
206.334
200.876
179
148.073
116.391
91.1371
77.4378
78.0836
92.8383
117.637
144.319
162.099
161.14
137.076
93.9373
43.1285
-1.5366
-30.179
-40.6043
-37.2976
-26.6706
-11.9932
7.88686
35.2775
68.7201
100.604
119.936
118.928
98.769
69.9861
46.7518
38.9379
47.2666
64.5839
81.9086
94.605
104.343
115.613
130.051
143.505
147.913
136.826
110.471
76.7573
47.3938
32.0177
33.8748
49.0441
68.9255
84.2404
88.4077
79.5103
60.7389
39.3195
23.8957
20.8338
30.9795
49.041
66.3561
75.8471
75.9291
71.0206
67.7455
69.6733
74.7153
77.0186
72.005
60.5876
49.3951
46.4581
55.3615
72.1022
87.1893
91.4243
81.4679
61.8299
42.2288
32.4619
37.7613
56.8549
83.0974
107.472
121.817
121.426
106.527
82.2427
56.8179
38.3595
31.4387
35.1614
43.8842
50.4991
50.5329
44.6554
38.1424
37.6314
47.1494
65.471
86.372
101.685
105.355
96.4171
79.2792
61.321
49.0223
45.0481
47.9237
54.2624
61.6987
70.0986
80.2463
91.5754
100.595
101.972
92.1939
73.2632
53.1033
42.0497
46.9235
66.7257
92.7293
113.193
119.892
112.404
97.4924
84.5723
80.3596
85.9792
97.7843
110.419
119.664
123.637
122.336
116.721
108.163
98.4703
89.8649
84.498
83.9023
88.4096
96.7592
105.901
111.358
108.331
93.9808
70.1192
44.5064
28.7218
32.4615
57.0132
92.1621
119.69
122.668
95.7823
49.8707
7.21537
-10.6098
5.00319
44.7793
87.0246
110.164
104.603
76.7207
43.3584
21.324
18.8865
33.4533
55.7063
75.7996
87.6347
89.4619
82.3502
68.8769
53.0264
40.4869
37.4698
47.7468
69.4814
94.6284
112.199
113.832
98.5107
73.5393
50.7742
40.0773
44.0805
57.3364
69.9247
73.4398
65.6272
51.1233
38.3235
34.3199
40.9485
53.9938
65.8335
69.752
63.7602
51.8987
42.4704
44.058
61.3155
92.171
128.153
157.527
170.011
160.478
130.446
86.9084
39.7803
-0.622001
-25.4621
-28.8277
-9.46004
27.7301
71.5941
107.617
123.632
115.987
92.2064
67.6439
57.1592
66.5997
89.1519
109.313
112.156
92.1271
55.9264
18.106
-7.35106
-14.0019
-4.50966
13.3583
32.5473
50.1256
66.6462
82.9118
97.0511
104.397
100.204
83.0739
56.9418
30.1173
11.9102
8.72373
21.5225
45.3578
71.4809
90.8714
97.8177
91.9972
78.3616
64.525
57.0172
58.1056
65.0912
72.2104
74.3212
70.1296
63.0563
59.128
62.9129
73.9288
86.1021
90.8828
82.5229
62.1204
37.805
20.5272
17.8637
29.5917
47.8268
61.7642
63.9804
54.2393
38.7523
25.9946
22.0599
28.3193
41.7634
56.796
67.0929
66.9677
53.0788
26.6939
-4.95308
-30.0428
-37.0448
-21.0161
12.7966
50.8537
78.3655
87.2928
79.9819
66.0961
55.5185
52.2952
53.8265
54.9438
53.0658
50.1444
50.2337
55.0962
62.0054
65.6827
62.7871
54.9192
47.5934
45.8785
50.4243
56.9122
59.363
54.4574
43.799
32.606
26.4999
28.7105
39.3027
55.7152
73.5504
87.0607
90.3821
80.4511
60.4603
40.9412
35.8341
54.3815
93.4725
136.337
159.885
147.394
99.2428
34.2296
-19.7017
-40.063
-21.1459
24.2637
73.1856
104.881
110.001
91.942
61.6304
30.4208
5.66341
-9.70105
-14.9738
-9.88725
5.22899
27.9804
52.9623
72.8878
81.3589
75.8349
59.1078
38.2534
21.5365
14.7979
18.9419
29.7505
40.2813
44.5272
40.6679
31.9827
24.8495
24.9451
33.8798
48.3313
62.2079
70.3914
71.8405
69.9126
69.862
75.3173
85.9268
97.683
105.435
105.912
99.3378
88.9265
78.9271
72.4942
70.7719
73.1046
77.9267
83.4068
87.6578
88.8287
85.6868
78.5664
70.1217
65.0249
68.1041
81.581
102.899
124.667
137.329
133.736
113.079
81.8326
50.6249
28.8287
19.9396
20.8169
25.0051
27.7937
29.2073
32.9908
42.4233
56.4385
69.4366
75.1041
71.3044
62.2182
55.7642
58.0266
68.962
82.6771
92.0014
93.8955
91.6402
92.1589
100.444
115.339
130.062
136.867
132.16
118.365
101.523
86.8212
75.4414
65.0929
53.3555
40.895
31.6313
29.9151
36.711
48.1402
57.3487
58.4532
50.0053
35.823
22.649
16.2562
18.4457
26.6882
36.2321
43.4517
48.0894
53.0663
61.7157
74.305
86.2764
89.7745
78.2021
51.5625
18.9725
-4.07284
-3.25803
25.7757
73.0272
117.813
139.242
128.065
92.6314
54.7123
37.3357
51.3377
88.8739
128.033
145.687
130.877
90.7386
45.874
18.5853
21.0079
49.63
88.5464
118.55
126.491
109.999
76.4343
38.1142
7.14769
-8.25156
-5.09706
14.5789
44.8694
77.6894
105.003
121.378
125.754
121.572
114.864
111.07
112.367
116.881
120.444
119.462
113.294
104.435
96.7285
92.8951
93.1315
95.8289
99.4748
104.163
111.265
121.164
131.107
135.251
127.831
107.473
79.4478
53.7732
39.712
40.2805
50.3088
60.0611
61.9859
55.8321
48.3398
47.5153
55.9202
68.0884
74.4178
68.9774
55.4221
45.9114
52.9397
79.2914
113.465
135.04
127.394
89.6123
39.3557
3.84651
3.97723
41.3531
96.6435
140.705
151.462
126.361
82.8212
46.8617
37.5899
56.7612
89.4558
114.447
117.604
99.7707
75.2244
62.1769
71.5574
100.567
134.37
154.616
150.051
122.877
87.4768
62.1893
59.0071
77.0342
103.361
121.236
120.214
102.036
78.675
64.3672
67.0333
84.794
109.062
131.372
148.42
161.56
172.03
176.502
167.469
138.876
93.2572
44.1796
11.1178
9.09854
39.4735
88.0283
132.292
153.758
147.741
124.743
102.86
96.1799
106.363
122.496
128.781
114.951
83.1211
46.9402
23.8849
25.3195
50.312
86.1892
115.366
124.315
110.051
80.9932
52.2524
37.9515
44.7519
69.3095
100.648
125.917
136.782
133.344
123.407
117.579
122.727
137.44
152.477
156.315
142.727
116.062
90.1653
81.4909
99.9762
142.848
195.203
237.081
253.132
239.481
204.63
164.363
133.901
121.347
125.249
136.811
145.227
143.306
130.878
114.632
104.217
106.561
121.266
139.56
147.939
135.158
99.0534
49.296
4.23171
-17.2242
-4.60712
38.7086
96.7362
148.031
175.17
172.256
146.757
115.094
94.3743
94.4902
114.24
142.81
165.617
171.205
155.773
123.661
84.5251
49.2076
26.4054
20.9954
33.3798
59.5164
91.317
118.122
129.931
121.622
96.0565
63.8366
39.0118
32.4894
46.5921
74.1134
102.334
119.836
122.22
-1e-006
-1.7e-005
-5.9e-005
-0.000123
-0.000184
-0.000198
-0.000147
-7.8e-005
-9.9e-005
-0.000299
-0.000655
-0.000991
-0.001063
-0.000765
-0.000296
-0.00012
-0.000656
-0.001871
-0.003097
-0.003348
-0.002048
0.000226
0.001561
-0.000641
-0.008466
-0.017328
0.024881
0.106939
0.161505
0.088313
-0.193991
-0.565762
-0.729208
-0.415277
0.292726
0.867086
0.604409
-0.790528
-2.68293
-3.65578
-2.48086
0.633069
3.58244
3.43466
-1.29041
-8.65664
-13.3127
-9.14389
6.70298
31.1446
55.8983
71.7278
73.78
64.5857
52.5816
46.9069
51.8937
64.7955
78.1693
84.9919
82.8226
74.3517
64.3824
55.99
48.8883
41.174
32.6165
26.4137
27.5416
38.6833
56.9004
73.9787
80.7609
72.761
53.241
31.4855
17.347
15.4511
22.937
31.9351
34.9003
29.4249
19.3589
12.0305
13.3168
23.9459
39.1601
51.6999
56.1078
51.572
41.7686
32.0302
25.8405
22.943
20.4469
15.918
10.0249
6.51823
9.16479
18.0118
28.0356
31.7873
24.6741
9.18142
-5.49779
-8.74603
4.51951
30.2443
57.8401
77.2855
85.5694
87.7539
91.8104
101.104
110.437
109.242
89.9525
55.6527
21.1025
5.59838
21.5776
66.0593
120.351
158.65
161.015
123.436
59.941
-3.86458
-42.2565
-40.2477
0.773216
64.6969
127.997
169.405
177.633
154.654
113.979
75.0671
56.048
67.0267
105.978
158.657
203.05
217.337
189.03
121.482
34.3215
-43.2239
-83.9918
-74.3982
-20.0657
57.2041
129.678
175.817
188.188
173.864
147.937
124.451
110.219
104.172
101.417
98.3023
94.8345
92.89
92.2262
88.2994
74.3584
47.1275
12.1786
-15.6482
-18.6663
13.2632
74.6788
144.687
196.592
211.637
188.872
145.059
104.385
84.6488
88.4863
104.926
119.086
122.899
119.423
118.404
127.15
143.972
159.214
162.912
153.001
137.621
129.618
137.073
156.863
176.046
180.284
163.722
133.507
105.649
95.2501
107.477
134.934
162.481
175.968
169.345
146.373
117.124
92.4379
79.7219
81.2745
94.38
112.141
124.969
123.371
102.339
65.4347
25.3664
-0.697078
0.397846
30.0739
76.1143
118.6
140.201
134.907
109.928
80.139
59.1334
52.298
55.8547
61.4833
62.6351
58.0883
51.0267
45.2164
41.7781
38.9562
34.7487
30.036
29.4702
39.0042
61.6374
94.0921
126.879
148.088
148.909
127.87
91.6045
51.8294
20.1253
3.3041
1.59177
10.1211
22.4556
33.9988
43.6404
52.9856
64.2883
78.1817
92.6965
103.923
107.936
103.185
92.1075
80.7594
76.1006
82.011
95.9899
109.145
110.436
93.375
61.3297
27.6771
9.30918
16.6925
46.5093
82.113
102.6
95.4224
64.4704
27.9716
7.00856
11.9143
35.7451
59.3804
65.0395
48.8136
23.3585
8.76249
17.963
46.9723
76.9827
86.8426
67.5092
28.4634
-8.12678
-21.2077
-3.38153
35.6608
76.2192
100.676
102.684
88.4141
70.5633
59.9081
59.9477
67.0559
74.7092
78.2861
77.5928
76.2519
78.9014
88.198
103.12
119.272
130.81
133.201
125.346
110.096
92.7253
78.2423
69.1213
64.7442
62.774
61.2831
60.0114
59.8876
61.4086
63.3485
62.917
57.4223
46.1805
31.3282
16.8906
6.6912
2.5888
3.86608
8.02809
12.3176
14.9653
15.7551
15.9124
17.1085
20.1282
23.9942
26.3237
24.7188
18.7557
11.1573
6.81545
9.56449
18.72
28.325
30.5521
21.5503
5.44289
-7.42758
-7.97066
3.28723
13.8062
6.20671
-28.3895
-79.9034
-120.3
-117.803
-56.8844
48.7399
159.585
229.751
231.18
168.368
74.9061
-5.60613
-42.5509
-31.6724
7.54032
46.7411
65.5846
60.5844
42.5707
26.8405
23.1979
31.802
45.6647
56.5562
60.2097
57.9186
54.7064
55.7333
63.034
74.1906
83.6139
85.4228
76.5718
58.8359
38.6028
23.9651
20.5592
28.4668
42.1862
53.7744
57.3794
52.4976
43.8483
37.9876
38.9058
45.3273
51.5559
51.1755
41.1428
23.7386
5.22107
-7.78892
-11.7941
-7.77478
0.002585
6.71582
9.45045
8.07204
4.44453
0.954314
-0.709127
0.097268
3.08637
7.41615
12.103
16.259
19.4625
22.0266
24.8992
29.1957
35.4012
42.8318
49.7592
54.2102
55.0268
52.5377
48.5224
45.4251
45.346
49.2577
56.7038
65.951
74.4955
79.7267
79.6113
73.4097
62.0688
48.0531
34.5807
24.4646
19.0743
17.9811
19.4178
21.2735
22.0788
21.4523
19.9307
18.3688
17.3838
17.0913
17.1288
16.9154
15.9494
14.0293
11.3317
8.43873
6.2293
5.52045
6.65167
9.20736
12.0196
13.6911
13.2532
10.7376
7.33771
4.80496
4.41659
6.12897
8.42847
9.14016
6.80962
1.8927
-3.02045
-4.26541
1.02023
13.2165
29.7198
45.9635
57.467
61.8224
59.5493
53.5231
47.3596
43.7159
43.3793
45.4223
48.1674
50.2097
50.9607
50.5182
49.1696
46.9065
43.3752
38.2827
31.9207
25.4433
20.6156
18.9768
21.0008
25.688
30.9842
34.75
35.7918
34.3282
31.7134
29.6151
29.1753
30.5445
33.0189
35.6003
37.6108
39.2332
41.4564
45.3807
51.0586
56.4823
57.5924
49.9543
31.5801
5.45346
-20.3294
-35.681
-33.7242
-15.1732
11.0653
32.1016
37.9767
27.2975
7.99166
-7.41493
-9.22227
3.94001
24.7065
41.6868
46.1117
36.1936
17.0569
-3.12717
-17.7908
-24.5488
-24.6254
-20.4479
-13.4648
-3.64206
9.37062
24.7525
39.9971
51.6849
57.0588
55.3025
47.9122
38.0559
29.3363
24.5111
24.6055
28.6246
33.9604
37.4561
36.7505
31.4177
23.224
15.3264
10.6911
10.5587
13.8691
17.976
20.1789
19.1948
15.6506
11.4931
8.69417
8.12122
9.26106
10.7664
11.3649
10.5679
8.76774
6.86103
5.69704
5.73638
6.97917
9.09581
11.5515
13.6837
14.8083
14.3912
12.3089
8.96324
5.23958
2.19903
0.663977
0.908217
2.62776
5.17615
7.89354
10.3494
12.3517
13.7919
14.5309
14.419
13.4524
11.94
10.4687
9.69168
10.0609
11.6103
13.9976
16.727
19.3669
21.6659
23.4904
24.6999
25.0967
24.5692
23.1906
21.3002
19.3673
17.7361
16.4471
15.264
13.9091
12.413
11.3159
11.4483
13.408
16.9738
20.852
23.1115
22.152
17.7601
11.6598
7.01617
6.99686
13.0502
23.8015
35.3387
42.8875
43.0509
35.524
23.2703
11.0624
3.15176
1.38407
4.62241
9.73292
13.43
13.8904
11.3699
7.64012
4.76756
4.02609
5.44814
8.09598
10.7057
12.3818
12.8484
12.332
11.2404
9.91908
8.6057
7.51652
6.93446
7.1222
8.22172
10.0676
12.1891
13.9924
15.0078
15.125
14.6343
14.0691
13.9755
14.6792
16.188
18.1917
20.2009
21.6859
22.2357
21.6458
19.9329
17.3373
14.2498
11.1106
8.30403
6.04892
4.39136
3.22424
2.35893
1.63679
1.05104
0.724009
0.812897
1.40141
2.37219
3.39963
4.05729
3.9801
3.08134
1.61185
0.101607
-0.84156
-0.774757
0.393116
2.34591
4.46427
6.06281
6.63428
6.02813
4.50566
2.62787
1.01055
0.09637
0.02289
0.652033
1.72971
3.01168
4.34708
5.61896
6.71786
7.51162
7.95547
8.19197
8.51066
9.16343
10.1274
11.0751
11.5718
11.4464
11.0307
11.0686
12.2636
14.6754
17.4664
19.1489
18.3624
14.6458
8.78562
2.4581
-2.65246
-5.6368
-6.63784
-6.44411
-5.71713
-4.44079
-2.02806
1.92287
6.76966
10.5975
10.9122
5.99974
-3.77724
-15.5916
-25.1173
-28.3631
-23.5095
-11.827
2.82382
15.574
22.4779
21.9461
15.0509
4.79246
-5.21217
-12.0916
-14.5511
-13.041
-9.27599
-5.40972
-3.16293
-3.31701
-5.57148
-8.83458
-11.7431
-13.1816
-12.6308
-10.2613
-6.84263
-3.50836
-1.3834
-1.1959
-2.88542
-5.51216
-7.59353
-7.79026
-5.63904
-1.84992
2.07561
4.66542
5.28646
4.42324
3.29205
2.97456
3.73153
4.96333
5.74616
5.50723
4.42987
3.26884
2.84896
3.51263
4.97539
6.61869
7.887
8.57547
8.88219
9.24743
10.1709
11.9519
14.5843
17.7521
20.9475
23.717
25.9342
27.9107
30.1277
32.8233
35.6539
37.7636
38.2369
36.6785
33.4636
29.4886
25.6242
22.4045
20.1484
19.2885
20.4902
24.2115
30.028
36.3002
40.759
41.7664
39.3878
35.4228
32.1711
30.8489
30.7707
29.9575
26.7777
21.3949
15.874
12.8311
13.6428
17.4946
21.9415
24.4611
23.9754
21.1269
17.5383
14.6299
12.8388
11.8507
11.2621
10.9989
11.1368
11.507
11.53
10.4701
8.02441
4.64582
1.30394
-1.13439
-2.30159
-2.13911
-0.466874
3.39317
10.2835
20.3864
32.4794
43.9765
51.9182
54.2898
50.8804
43.2415
33.8747
25.2927
19.4518
17.4267
19.3014
24.0877
29.8596
34.3099
35.9741
35.3141
34.8306
37.7482
45.7559
57.2023
67.0616
69.2842
60.2395
41.2845
18.7888
1.51724
-3.26233
7.17635
30.226
59.3387
86.7259
106.073
114.355
112.636
105.549
99.4601
99.649
107.645
120.192
130.851
133.891
128.361
119.644
117.051
128.366
154.491
187.682
214.861
224.06
210.578
179.488
142.791
113.349
99.4807
102.146
116.001
132.85
145.537
150.425
147.922
141.503
135.724
134.083
137.415
143.98
151.046
157.15
163.361
172.152
184.071
194.201
191.716
164.23
105.151
20.1041
-72.0666
-145.506
-178.162
-161.992
-106.856
-35.9567
25.1887
60.0034
66.6264
55.8286
42.9952
39.1318
46.0366
57.791
66.664
69.1558
68.2652
71.1117
83.8806
107.354
135.889
160.314
172.38
168.279
149.771
123.201
97.0625
79.4924
76.6003
90.7081
119.186
154.483
185.771
203.298
202.759
187.813
168.424
155.446
154.815
164.192
174.659
176.788
166.554
148.328
132.253
128.368
-4e-006
-5.8e-005
-0.000184
-0.000362
-0.000522
-0.000559
-0.000417
-0.000208
-0.000198
-0.000636
-0.001508
-0.002409
-0.002713
-0.002047
-0.000751
7.7e-005
-0.000764
-0.003528
-0.006851
-0.008204
-0.005597
0.000257
0.00476
0.000378
-0.020328
-0.043416
0.102727
0.323873
0.422949
0.170811
-0.570495
-1.56956
-2.05959
-1.35323
0.468376
2.17076
1.95402
-1.17693
-6.03858
-9.29063
-7.44154
-0.016398
8.57202
10.804
1.30641
-17.3499
-32.6139
-26.7356
12.8983
83.7321
165.127
226.169
241.147
204.053
133.198
62.2826
22.764
27.5631
65.5884
110.028
134.813
129.019
100.892
70.3118
55.6435
63.5721
87.5242
114.393
133.774
143.533
148.492
154.816
164.14
171.742
169.997
154.384
127.983
101.014
86.4791
93.6087
122.775
164.808
205.03
229.438
230.323
208.34
170.505
125.857
81.6867
42.4833
11.4858
-7.22692
-8.49576
11.6988
52.6845
106.843
161.035
201.213
217.684
208.169
177.428
134.376
89.1005
51.1026
28.4994
26.6946
46.4299
81.8791
120.913
149.093
156.17
141.481
114.333
88.5641
74.4738
73.3023
77.758
78.4355
71.0718
59.634
52.8716
57.5695
73.1774
91.7878
103.554
103.418
94.1248
83.7575
79.9346
85.0073
95.414
105.044
109.441
107.664
101.089
90.9083
76.9844
59.335
40.3311
25.2071
19.6003
25.6333
39.6969
54.1503
62.0284
61.3161
55.8921
52.3881
55.4084
64.5129
74.9157
80.8709
79.2455
71.0072
60.1471
51.3111
48.0259
51.8941
62.2837
76.0675
87.7995
91.2644
82.5889
63.4254
41.8255
29.2386
34.5033
58.3996
92.3616
122.695
138.061
135.358
120.386
103.003
90.3514
83.0028
76.5216
66.8183
54.7413
46.2764
48.1
61.9962
82.53
99.9779
106.594
101.684
91.6577
85.1015
86.1979
91.3253
91.3907
78.4555
52.0914
21.0609
-1.14201
-4.19057
12.7968
40.5453
64.9496
75.1165
69.1417
54.3149
41.9049
40.0778
49.3819
63.4232
73.7282
75.4254
70.0686
64.007
63.7357
71.4793
83.9367
94.5973
97.8478
92.0363
79.8031
65.9998
55.0297
49.3159
49.4211
54.8207
64.4243
76.4084
88.1015
96.6551
100.447
100.146
98.2556
97.1097
96.6144
93.5889
83.641
64.5982
39.2721
15.4724
2.74485
7.48713
29.1635
59.7166
86.6686
98.5644
89.973
63.8572
30.2217
1.79814
-11.2492
-5.21494
16.337
44.8276
31.7174
37.4249
43.6386
48.0826
48.1756
42.3355
30.9947
16.7493
3.54121
-4.77166
-5.6758
1.40811
15.3882
34.0875
54.3953
72.814
85.7256
90.1806
85.0575
71.9417
54.9522
39.2691
29.1012
26.0152
28.6108
33.657
38.0048
40.1187
40.5456
41.3497
44.9635
52.9471
65.1088
79.0807
90.5067
94.1379
85.8619
65.1328
36.3204
7.93188
-10.5502
-13.0324
0.007161
21.4164
40.717
49.2167
44.0021
28.8071
11.4948
-0.220795
-2.4261
3.75391
13.6324
21.9719
25.7875
25.6112
24.7806
27.2833
35.3441
47.9812
61.3446
70.6541
72.813
68.1676
60.0219
52.8844
49.7886
50.6675
52.8679
53.221
50.2933
45.3081
41.2725
40.9304
44.9757
51.7238
58.3976
62.8988
64.8258
65.2015
65.2633
65.2885
64.3665
61.2475
55.4977
48.132
41.228
37.0215
36.9784
41.5697
50.6333
63.7022
79.7653
96.5568
110.08
115.264
108.011
87.7842
59.1335
30.8555
12.7153
11.0327
25.706
50.285
75.169
91.9485
96.7783
91.0301
79.3864
66.9726
57.2426
51.4853
49.4989
50.3135
52.546
54.5232
54.6781
52.3629
48.6544
46.1902
47.8895
55.2153
67.0897
80.278
90.9067
96.1644
95.196
88.7237
78.0174
64.1975
48.4629
32.7442
20.0382
13.7558
16.184
27.0448
43.1312
59.4688
71.3837
76.409
75.0373
70.0528
64.9643
62.3942
63.2149
66.5815
70.6492
73.517
73.9914
71.9889
68.391
64.3366
60.6978
57.7438
55.3462
53.2149
51.1565
49.0486
46.6358
43.5574
39.6477
35.4149
32.1096
30.966
32.0175
33.5194
32.7279
27.9364
20.5932
15.6486
19.4009
35.5416
61.7667
89.378
106.725
104.958
82.9115
48.6807
15.7696
-3.55272
-4.42566
8.43779
23.8846
31.1952
26.771
15.9855
9.79669
17.4447
39.9061
68.4277
89.3976
92.636
77.8209
54.8187
37.728
36.1067
48.8684
64.6575
68.1942
48.7473
6.20879
-48.6497
-98.9004
-128.393
-127.434
-95.3777
-39.9411
25.6925
86.7581
130.633
149.535
141.577
110.241
62.8513
9.09256
-39.8893
-72.2856
-77.5229
-49.7178
8.42628
84.0489
156.996
207.115
222.713
205.567
169.391
132.309
108.27
101.27
105.926
112.83
114.846
110.497
103.16
97.7018
96.6228
98.9794
101.684
101.907
98.8257
93.8512
89.4786
87.9708
90.1036
94.9077
100.218
103.626
103.624
100.298
95.2901
91.325
90.8633
94.7059
101.308
107.578
110.824
110.696
109.718
111.723
118.749
128.435
133.894
126.923
103.015
65.1224
23.4066
-9.34253
-24.1475
-20.2086
-4.38381
13.8413
28.396
39.7527
53.0794
72.9863
98.8045
123.79
138.807
137.933
122.096
98.4318
76.0541
61.2532
55.1057
54.6108
55.7615
56.2282
55.9608
55.9713
56.7673
57.7733
57.9155
56.8781
55.3433
54.2494
53.9239
53.922
53.7849
53.867
55.3326
59.0444
64.0643
67.2484
64.6189
54.0712
37.6006
21.2881
12.6258
16.6002
32.793
55.2929
75.6616
87.1096
87.5197
79.7211
69.077
60.0846
54.0518
49.1506
42.4069
32.1965
19.5802
7.92864
1.29195
2.67409
13.1132
31.6624
55.6859
81.039
102.213
113.03
108.395
86.73
51.9023
13.1262
-17.8481
-31.3493
-23.9966
-0.270265
29.5133
53.9099
65.2119
62.06
48.7955
32.3929
18.9269
11.4413
9.75605
11.5791
13.9022
14.0154
10.0664
1.513
-10.4435
-22.8227
-31.6714
-33.6039
-27.4398
-14.935
-0.096077
12.6053
20.2377
22.4231
20.8996
18.1667
16.0605
15.1483
15.0367
15.1972
15.5687
16.5815
18.7256
22.0486
26.0496
29.8999
32.8936
34.7995
35.9482
37.0494
38.8644
41.8424
45.8134
49.8946
52.7899
53.2883
50.8549
45.9089
39.6551
33.4662
28.1645
23.718
19.488
14.84
9.70701
4.75329
0.948012
-1.04093
-1.30898
-0.682119
-0.195904
-0.431201
-1.18763
-1.6549
-0.974116
1.1622
4.28864
7.4506
9.80701
11.1454
12.0379
13.5149
16.4365
21.0023
26.6666
32.5279
37.8427
42.4408
46.7142
51.1543
55.7984
59.9563
62.5185
62.5773
60.1674
56.3154
52.6783
50.8261
51.3859
53.9676
57.592
61.4232
65.1638
68.8797
72.4053
74.9757
75.3954
72.9282
68.2273
63.4003
60.8626
61.5528
63.9343
64.8166
62.0516
57.3965
57.1325
69.1644
97.5669
137.823
176.345
195.676
183.271
139.109
77.4304
21.0042
-9.38124
-4.66022
28.84
73.5184
109.702
124.857
117.873
97.1772
74.597
58.9767
52.9075
53.5914
55.9882
56.236
53.0377
47.3198
40.8723
35.1746
31.0658
28.789
28.3346
29.3341
30.6879
30.6558
27.2916
19.3678
7.06829
-7.89206
-22.8416
-35.0102
-42.2288
-43.3854
-38.2842
-27.5292
-12.2836
5.96853
25.7476
45.7561
64.8524
81.7423
94.6232
101.35
100.455
92.5836
81.3303
66.5805
63.9299
63.6662
66.8844
73.1029
80.1563
84.9267
84.592
77.9763
66.1658
52.2056
39.8507
31.9556
29.3015
30.4514
32.7004
33.5382
31.803
28.0047
23.73
20.6342
19.5419
20.1562
21.362
21.8829
20.8942
18.331
14.8569
11.5544
9.4291
8.98981
10.0663
11.8693
13.3324
13.5531
12.1672
9.52056
6.4205
3.69061
1.7823
0.709885
0.244287
0.28425
0.972366
2.42469
4.28597
5.57813
5.22703
3.24733
1.84596
5.21138
17.5
39.6219
66.7046
88.2811
92.0708
70.031
23.6498
-34.7486
-86.1544
-112.801
-106.091
-70.3166
-20.276
25.812
54.3172
61.0587
51.0244
33.9419
18.7021
9.72524
6.62829
6.46433
6.50349
5.79254
4.9715
5.12781
6.77688
9.64343
13.1752
17.1629
21.874
27.6185
34.1362
40.2422
44.144
44.2993
40.3012
33.4264
26.4349
22.6402
24.6104
33.0657
46.4887
61.6645
74.9732
83.7476
87.024
85.3938
80.2098
72.7528
63.966
54.7598
46.4815
40.9096
39.5367
42.4989
48.0301
53.0558
54.7442
52.1266
46.6362
41.1949
38.2998
38.3289
39.2115
37.691
31.3514
20.184
6.68813
-5.44966
-13.2682
-15.8737
-14.4795
-11.3131
-8.18082
-5.54211
-2.59339
1.76991
7.87714
14.7216
20.2404
22.2675
19.6546
12.9333
4.29157
-3.29864
-7.28706
-6.58471
-1.99293
4.17178
9.13549
10.9065
9.21514
5.64992
2.936
3.5497
8.38562
16.1332
23.8024
28.2278
27.7926
23.3716
17.8912
14.6754
15.5621
19.9286
25.2177
28.6727
29.1249
27.6565
26.8026
28.7326
33.7158
39.9222
44.6689
46.2314
45.0103
43.1816
43.0709
45.3391
48.2894
48.8459
44.6752
36.1426
26.7434
21.5743
24.5757
36.0339
51.8147
64.9341
68.7769
60.3253
41.765
19.585
1.67971
-6.17212
-2.67837
8.80388
22.1768
31.5257
33.5405
28.4475
19.2244
9.78078
3.12722
0.310989
0.506572
1.90078
2.83403
2.63241
1.75322
1.33712
2.46032
5.47759
9.81055
14.2445
17.5426
18.9876
18.6478
17.1878
15.5259
14.4203
14.243
15.0093
16.5177
18.4557
20.4895
22.314
23.7539
24.8301
25.7887
27.0024
28.7615
31.0473
33.4551
35.354
36.1694
35.7006
34.2455
32.492
31.1784
30.6978
30.8924
31.1352
30.6602
28.9958
26.1931
22.7908
19.4851
16.718
14.4949
12.5059
10.4403
8.29876
6.41312
5.20488
4.85568
5.13151
5.50408
5.49931
4.93992
3.98299
2.87727
1.76957
0.662768
-0.429305
-1.24823
-1.33518
-0.290383
1.86554
4.5458
6.84802
8.05441
8.05894
7.41096
6.93293
7.16513
8.02203
8.91105
9.19097
8.6119
7.46136
6.3438
5.70303
5.52976
5.45472
5.02295
4.04471
2.71101
1.42362
0.507748
0.013569
-0.20351
-0.282859
-0.236641
0.042151
0.621355
1.46068
2.40537
3.29467
4.12822
5.05573
6.30037
7.96244
9.87899
11.5774
12.3497
11.4328
8.40492
3.69971
-1.13948
-3.66027
-1.48691
6.36864
18.5337
31.3998
40.6398
43.3073
39.3454
31.4958
23.5839
18.2512
15.643
13.8849
10.9954
6.78702
3.37602
3.84202
10.0214
20.9618
33.0816
42.0083
44.8382
41.4016
33.8919
25.356
18.0873
12.9178
9.57853
7.52582
6.532
6.64262
7.77506
9.40916
10.6604
10.7671
9.52074
7.43137
5.3973
4.15425
3.90744
4.27184
4.65419
4.6514
4.32492
4.09433
4.41476
5.41221
6.81027
8.17836
9.25598
10.1893
11.3971
13.2007
15.4815
17.6319
18.9282
19.0629
18.4298
17.9317
18.3962
20.0622
22.2266
23.5401
22.8649
19.8642
15.2607
10.4782
6.86233
4.96598
4.28878
3.67789
2.14395
-0.388605
-2.92184
-3.92799
-2.29588
1.86484
7.19772
11.8932
14.8704
16.5771
18.9011
24.1566
33.7891
47.5639
63.6329
79.9987
95.3325
109.404
122.641
135.285
147.004
157.3
166.284
174.945
184.341
194.348
202.957
207.261
205.677
199.791
194.065
192.94
196.959
200.67
194.409
169.646
124.965
69.0212
18.1126
-10.6741
-7.555
25.1019
73.8141
119.914
147.496
149.342
128.521
95.4626
62.615
39.4059
29.4922
30.8987
38.2774
45.8313
49.6083
48.36
43.0801
35.7933
28.4224
22.1391
17.3555
13.9483
11.47
9.23575
6.44726
3.17356
0.536551
0.508367
4.75085
12.9742
22.0169
26.6811
22.3118
7.83072
-12.8263
-31.972
-41.9999
-39.3804
-26.6086
-10.8644
-0.069012
1.22947
-6.25959
-17.794
-27.9153
-33.5213
-34.9589
-34.7255
-35.1345
-36.6499
-37.9357
-37.2451
-33.9109
-28.7656
-23.3451
-18.7483
-14.9226
-11.0596
-6.64519
-2.27069
0.401903
-0.495651
-5.90996
-15.2018
-26.2151
-35.9721
-41.5854
-41.1423
-34.2698
-22.3938
-8.5127
3.71164
11.308
13.2808
11.1912
8.37324
8.15918
12.0728
19.0023
25.9796
30.0339
29.9448
26.7762
22.8737
20.0714
18.4813
16.6561
13.0388
7.56385
2.2541
0.139736
3.31844
11.3352
21.1759
28.7641
31.1604
28.0891
21.8506
15.9029
13.0357
14.1981
18.5407
24.3099
29.8142
33.8629
35.8585
35.1617
31.4249
25.0692
17.5858
11.3516
8.56751
10.1733
15.2544
21.5542
26.9381
30.7703
34.168
39.0028
46.3691
55.6289
64.7854
71.7969
75.8894
78.0457
80.3044
84.5911
91.8402
101.691
112.709
122.611
128.437
126.959
115.642
94.0281
64.8293
33.7435
7.56095
-8.63092
-13.5319
-10.0187
-3.33819
1.62681
2.58147
0.270533
-2.84948
-4.47748
-3.83424
-1.69773
0.460811
1.54309
1.33858
0.388286
-0.575261
-1.13093
-1.02288
-0.291056
1.32505
4.61458
10.5461
19.5365
30.5111
40.7262
46.5463
45.0623
35.9576
22.3633
9.89306
4.1356
7.9108
19.8466
35.0781
47.7474
53.8133
52.6347
46.6624
39.6767
34.7817
33.2115
34.3957
36.8164
38.9208
39.6648
38.6208
35.9254
32.2364
28.561
25.9015
24.7447
24.701
24.5649
22.9907
19.3128
14.0638
8.79222
5.19189
4.15606
5.30867
7.33952
8.83558
9.11591
8.49087
7.88572
8.12963
9.41737
11.2648
12.9223
13.8713
14.0593
13.7743
13.3283
12.8153
12.1216
11.1031
9.70845
7.99946
6.07319
4.03651
2.08554
0.640566
0.300112
1.51585
4.17909
7.39834
9.6909
9.66395
6.75176
1.58299
-4.3156
-9.29678
-12.3989
-13.7277
-14.1956
-14.8289
-16.1242
-17.8205
-19.1709
-19.4795
-18.5035
-16.5477
-14.2566
-12.285
-11.078
-10.8041
-11.3443
-12.3391
-13.268
-13.5691
-12.8859
-11.3063
-9.42306
-8.09842
-8.00068
-9.17755
-10.9492
-12.2665
-12.3189
-11.0012
-8.95701
-7.17612
-6.37864
-6.62695
-7.39102
-7.97014
-7.94805
-7.34005
-6.44663
-5.54782
-4.75703
-4.09613
-3.68563
-3.74292
-4.35711
-5.21418
-5.5814
-4.57197
-1.72786
2.46718
6.59177
8.91095
8.31076
4.94156
0.237423
-3.81137
-5.74215
-5.40451
-3.85762
-2.38747
-1.15583
1.48738
8.30392
21.1583
38.7907
55.932
64.8439
58.8905
36.4706
2.95518
-30.8315
-53.1675
-56.7621
-42.0206
-16.5376
8.85361
25.236
29.191
23.1759
13.0263
4.3574
-0.013626
-0.496444
0.672505
1.37381
0.865261
-0.218183
-0.699419
0.183688
2.33777
5.00051
7.27741
8.63135
9.09051
9.1355
9.3703
10.2078
11.7767
13.967
16.522
19.1572
21.6488
23.8905
25.8623
27.6508
29.4342
31.4066
33.6628
36.1067
-0
-3e-006
-1e-005
-2e-005
-2.9e-005
-3.2e-005
-2.8e-005
-2.4e-005
-3.2e-005
-5.9e-005
-0.000103
-0.000143
-0.000155
-0.000131
-9.3e-005
-8.8e-005
-0.000153
-0.000281
-0.000403
-0.000426
-0.000296
-7.9e-005
2.2e-005
-0.000298
-0.001346
-0.002318
0.006344
0.017996
0.022039
0.00787
-0.031808
-0.075759
-0.091593
-0.057945
0.01372
0.06419
0.020077
-0.138231
-0.335004
-0.428115
-0.306998
-0.008512
0.25312
0.199482
-0.288586
-1.01058
-1.43175
-0.913981
0.95237
4.06621
7.77555
11.1371
13.3182
13.9538
13.2912
12.0107
10.8882
10.4261
10.6135
10.9924
10.9234
9.94717
8.06267
5.73565
3.61005
2.10557
1.232
0.62534
-0.079315
-0.892176
-1.35719
-0.778932
1.23332
4.29193
7.20607
8.49536
7.16966
3.33619
-1.73228
-6.26482
-8.99355
-9.85058
-9.8912
-10.2881
-10.99
-10.1235
-4.74658
7.07446
23.9994
40.6062
49.0363
42.7147
20.3193
-12.393
-44.2872
-63.6162
-63.3934
-44.6117
-15.4915
12.6788
30.767
35.3087
28.7614
16.9283
5.49801
-2.34835
-6.24932
-7.44385
-7.28827
-6.47968
-5.25229
-3.92822
-3.1593
-3.5984
-5.38257
-7.89941
-10.0117
-10.7129
-9.65309
-7.29148
-4.58215
-2.40954
-1.19448
-0.837258
-0.922826
-0.985442
-0.738342
-0.132786
0.740647
1.73253
2.71937
3.68942
4.7021
5.82318
7.06022
8.24887
9.07531
9.18484
8.3465
6.59912
4.31182
2.06154
0.438464
-0.198677
0.169771
1.23897
2.56748
3.73473
4.50532
4.85725
4.90876
4.78045
4.51014
4.05735
3.38426
2.54503
1.73803
1.24572
1.30391
1.98515
3.15784
4.5829
6.05478
7.52284
9.08288
10.8898
13.0247
15.4105
17.8291
20.0032
21.7063
22.7949
23.2184
23.013
22.3062
21.3501
20.4917
20.0857
20.3798
21.4072
22.9001
24.4099
25.4301
25.6015
24.8904
23.6224
22.3739
21.7275
21.9757
22.8868
23.7514
23.6675
21.997
18.7031
14.422
10.1159
6.65117
4.43808
3.4128
3.29405
3.86381
5.07016
6.90436
9.13692
11.1756
12.1927
11.5588
9.18497
5.69902
2.19175
-0.33005
-1.50026
-1.77983
-2.09868
-3.06447
-4.16893
-3.63401
0.700689
9.74858
21.7287
31.9987
34.7236
25.8502
5.86471
-19.4245
-40.8361
-49.8674
-42.7229
-22.1771
3.8322
25.9986
37.8794
38.1996
30.3828
19.9184
11.3476
6.49519
4.63339
3.95747
3.14366
2.06905
1.48299
2.15051
4.17824
6.93872
9.44006
10.8886
11.032
10.1495
8.80294
7.50061
6.49776
5.83037
5.42144
5.25186
5.39353
6.01621
7.20589
8.88294
10.7936
12.6562
14.3309
15.9147
17.6366
19.6452
21.8105
23.7222
24.8879
25.0284
24.2534
23.0158
21.8231
20.9331
20.2196
19.2516
17.6048
15.1163
11.9657
8.54065
5.2289
2.26205
-0.26617
-2.34667
-3.99484
-5.3043
-6.47617
-7.83662
-9.67711
-12.0038
-14.4154
-16.214
-16.7781
-15.9748
-14.3498
-12.9038
-12.5773
-13.7296
-15.9582
-18.3313
-19.9295
-20.3398
-19.8004
-18.9067
-18.1747
-17.6981
-17.1736
-16.2005
-14.6248
-12.6997
-10.9106
-9.66394
-9.01374
-8.63798
-8.03076
-6.76881
-4.70242
-1.94295
1.25825
4.65872
8.06461
11.3221
14.2681
16.7481
18.6781
20.0083
20.7333
20.9095
20.6739
20.2764
20.0608
20.4085
21.5935
23.5011
25.525
26.719
26.2324
23.7684
19.8955
15.8835
13.0812
12.1729
12.7923
13.9435
14.9678
16.4812
20.3653
28.5666
41.1418
54.9222
63.9623
62.0567
46.1858
18.9771
-11.5067
-34.9048
-43.1231
-33.9608
-11.9143
14.1871
35.3419
46.0554
45.8063
37.982
27.3695
17.7695
10.8584
6.53152
3.93525
2.37763
1.6165
1.6033
2.19979
3.07778
3.94032
4.70863
5.58097
6.90586
8.94492
11.6869
14.8118
17.853
20.4063
22.2519
23.3885
24.0135
24.4563
25.0213
25.9067
27.1468
28.6278
30.1741
31.6163
32.8804
33.9742
34.9541
35.8799
36.8194
37.8468
39.0203
40.2974
41.4787
42.1984
42.0534
40.8341
38.6987
36.1313
33.692
31.6733
29.9303
27.9818
25.4025
22.1637
18.7297
15.7629
13.6763
12.323
11.0919
9.33813
6.87318
4.14481
1.958
1.01014
1.41834
2.6696
3.93335
4.52573
4.22135
3.23904
1.98395
0.763515
-0.304146
-1.2208
-1.90879
-2.18854
-1.9191
-1.19081
-0.41849
-0.203164
-1.01957
-2.91563
-5.43852
-7.82797
-9.41784
-9.9689
-9.75232
-9.35436
-9.31475
-9.8012
-10.5508
-11.0737
-10.9472
-10.1022
-8.90259
-7.93107
-7.63016
-8.00112
-8.54973
-8.55062
-7.39789
-4.9493
-1.69793
1.40542
3.34774
3.43742
1.55572
-1.80037
-5.78057
-9.50868
-12.419
-14.3866
-15.5555
-15.8825
-14.7609
-11.0879
-3.99287
6.09014
16.6829
23.6567
22.9558
12.9516
-3.9324
-21.5428
-32.4514
-31.4852
-18.434
1.70654
21.1536
33.1069
34.7773
28.1112
17.9661
9.12349
3.89773
1.6513
0.145492
-2.48326
-6.42208
-10.2609
-12.186
-11.2765
-8.04684
-4.04256
-0.869046
0.665086
0.803516
0.459528
0.548395
1.4755
3.07076
4.91789
6.72299
8.50543
10.5327
13.0528
16.0686
19.3164
22.4036
25.1063
27.4945
29.8857
32.6195
35.8055
39.259
42.6298
45.6063
48.0978
50.2067
52.0629
53.621
54.5991
54.6084
53.3919
51.0049
47.8253
44.36
41.0371
38.0535
35.3938
32.916
30.4657
27.8982
25.0602
21.7809
17.9518
13.6604
9.24627
5.23472
2.12502
0.183937
-0.642008
-0.651471
-0.211285
0.41797
1.11739
1.85322
2.57678
3.17083
3.53166
3.6197
3.48571
3.25817
3.04681
2.89325
2.78133
2.67894
2.5537
2.37241
2.10497
1.7168
1.21744
0.742077
0.501304
0.6722
1.2631
2.04848
2.68218
2.90798
2.73968
2.45559
2.41917
2.84399
3.64579
4.51757
5.17256
5.56909
5.99817
6.81858
8.13552
9.55231
10.3056
9.7112
7.69777
5.00557
2.83147
2.07136
2.67412
3.66764
4.01948
3.81933
4.79108
9.43627
19.0226
31.6232
41.8424
42.9572
30.6679
6.35476
-22.3468
-44.4863
-50.9621
-39.105
-14.0679
13.753
33.8107
40.1504
33.3687
19.1343
4.51817
-5.507
-9.67823
-9.73644
-8.4757
-7.93304
-8.68732
-10.233
-11.7881
-12.8835
-13.4426
-13.5425
-13.2033
-12.3724
-11.0784
-9.59096
-8.37971
-7.91957
-8.37349
-9.40699
-10.2702
-10.1544
-8.61609
-5.93723
-3.06152
-1.1361
-0.859923
-2.01946
-3.50575
-3.88001
-2.17702
1.5272
6.14365
10.1725
12.5165
13.0173
12.4259
11.8292
11.9049
12.5166
12.85
11.9924
9.53037
5.84793
1.90358
-1.34809
-3.52508
-4.99897
-6.63222
-9.19217
-12.8661
-17.0514
-20.5858
-22.3091
-21.6052
-18.6667
-14.3613
-9.81688
-5.8964
-2.90719
-0.610389
1.49999
3.80647
6.31919
8.70568
10.5059
11.4508
11.6353
11.4446
11.356
11.6552
12.2857
12.9489
13.3185
13.3192
13.2631
13.7488
15.3324
18.1695
21.8197
25.3517
27.7149
28.2385
26.9424
24.4807
21.7704
19.5361
18.0364
17.1083
16.4843
16.046
15.8621
16.0003
16.3388
16.5519
16.332
15.6585
14.9363
14.7551
15.4252
16.5796
17.2627
16.4352
13.6325
9.38669
5.03196
1.97535
0.868162
1.31037
2.33667
3.45748
5.46963
10.2356
19.307
32.1043
44.9319
51.9056
47.7442
31.0576
6.17194
-17.9053
-31.301
-27.9675
-8.71251
19.1243
45.2047
61.0008
63.3149
54.7903
41.5679
29.7512
22.6959
20.3742
20.6149
21.0218
20.3258
18.5822
16.4763
14.5418
12.8005
10.9504
8.78707
6.50297
4.61956
3.67446
3.88382
4.97889
6.3294
7.23023
7.20639
6.19579
4.61051
3.15062
2.50119
3.04762
4.70351
6.94564
9.10138
10.6819
11.6076
12.1884
12.8928
13.9918
15.3447
16.478
16.8743
16.3236
15.0895
13.7615
12.853
12.4591
12.1333
11.1294
8.89834
5.48761
1.59411
-1.79786
-3.89555
-4.51794
-4.10595
-3.39764
-3.00595
-3.17158
-3.80916
-4.75541
-5.93047
-7.30112
-8.75668
-9.93701
-10.384
-9.852
-8.59418
-7.36174
-7.01705
-8.02859
-10.1063
-12.2705
-13.3768
-12.7813
-10.7243
-8.21167
-6.44247
-6.1638
-7.27354
-8.95384
-10.1935
-10.3985
-9.71785
-8.95346
-9.0869
-10.7308
-13.7571
-17.3386
-20.3201
-21.7089
-21.0588
-18.5433
-14.7602
-10.4033
-5.95887
-1.62368
2.61491
6.83288
11.0515
15.2625
19.4632
23.6049
27.5028
30.7293
32.676
32.8299
31.149
28.251
25.2751
23.378
23.1852
24.628
27.2628
30.9143
35.9954
43.1335
52.1629
61.2575
67.048
65.9958
56.4923
40.4398
23.0854
10.9065
8.56059
16.56
31.0014
45.5024
54.2626
54.5098
47.2058
35.8906
24.6045
16.1354
11.3621
9.66524
9.84174
10.7895
11.7616
12.2789
12.0244
10.8559
8.87094
6.41779
4.02236
2.19578
1.27613
1.35172
2.23429
3.57224
4.98289
6.20379
7.20653
8.19083
9.41989
10.9945
12.7146
14.131
14.8428
14.8029
14.4238
14.3976
15.3
17.2119
19.6212
21.6939
22.7007
22.3858
21.033
19.2463
17.5684
16.2234
15.1011
13.9168
12.4404
10.6357
8.63854
6.67219
4.93793
3.56558
2.6129
2.04167
1.72865
1.50098
1.19608
0.774263
0.381776
0.303517
0.790876
1.85693
3.22019
4.41216
4.9982
4.83457
4.14362
3.36294
2.88327
2.83573
3.07363
3.32699
3.41621
3.34914
3.28279
3.37756
3.65526
3.97632
4.11088
3.87702
3.26261
2.43711
1.68999
1.31736
1.49623
2.20638
3.20579
4.15588
4.78167
5.01516
4.98899
4.883
4.68831
4.15822
2.95644
0.952363
-1.50211
-3.60146
-4.39084
-3.24874
-0.302198
3.53079
6.9235
8.67874
8.23796
5.85759
2.34613
-1.41597
-4.96968
-8.30681
-11.4054
-13.4989
-12.6886
-6.54387
6.25133
23.9876
41.1157
49.608
42.4164
17.5291
-19.7009
-57.7207
-83.3472
-87.679
-70.2204
-38.981
-6.49051
16.0861
23.6044
18.1041
-0
-6e-006
-1.9e-005
-3.4e-005
-4.5e-005
-4.3e-005
-2.9e-005
-1.9e-005
-3.4e-005
-8.6e-005
-0.000158
-0.000207
-0.000192
-0.000116
-3.9e-005
-5.2e-005
-0.000204
-0.00044
-0.000606
-0.000538
-0.000202
0.000206
0.000264
-0.000529
-0.002563
-0.004024
0.013388
0.033839
0.036575
-0.001104
-0.073648
-0.146408
-0.149959
-0.05145
0.096914
0.162516
0.023822
-0.301111
-0.615445
-0.64648
-0.260111
0.35355
0.715357
0.360155
-0.753856
-2.01899
-2.35893
-0.778902
3.00828
8.27327
13.5239
17.1836
18.3178
17.0045
14.1524
10.9527
8.29799
6.51086
5.44693
4.83107
4.53417
4.62478
5.21305
6.27379
7.57294
8.76476
9.56477
9.90758
9.97081
10.0686
10.4777
11.262
12.1981
12.8271
12.6632
11.4646
9.453
7.24139
5.586
4.96083
5.29143
5.99834
6.37291
6.01739
5.04696
3.91434
3.05112
2.57192
2.26799
1.88898
1.44121
1.30664
1.97129
3.55604
5.54237
6.92133
6.71235
4.5077
0.732524
-3.62956
-7.64829
-10.9828
-13.9124
-16.7418
-18.9384
-18.7096
-13.6352
-2.3244
13.729
29.4609
37.5713
31.7401
10.2569
-21.9988
-54.7122
-76.2442
-78.8131
-62.0505
-33.0597
-2.97436
18.1976
25.6573
20.9176
9.75027
-1.43568
-8.65782
-11.3697
-11.3821
-10.8544
-10.8151
-10.9451
-10.3891
-8.80648
-6.75002
-5.23629
-4.91423
-5.46414
-5.70501
-4.34354
-0.89954
3.78094
7.85407
9.42311
7.59625
3.08994
-1.97806
-5.03204
-4.29434
0.399681
7.56877
14.8938
20.4063
23.3864
24.4719
24.9824
25.8854
27.1051
27.5931
26.1743
22.6313
18.2427
15.3382
16.0464
20.8785
28.1277
34.4479
36.4802
32.6177
23.9291
13.6854
5.82322
3.09033
5.81988
11.9237
18.0443
21.1616
19.8853
14.8823
8.32684
2.78883
0.116257
0.841527
4.19753
8.69782
12.8841
15.8934
17.6129
18.4636
19.0143
19.6522
20.4626
21.3417
22.1816
22.9704
23.7448
24.4783
25.01
25.1046
24.6479
23.7564
22.7531
21.9858
21.5998
21.4468
21.2028
20.5881
19.5585
18.3293
17.2596
16.6506
16.6442
17.206
18.2165
19.5226
20.9081
21.9868
22.216
21.1049
18.4534
14.5924
10.3432
6.64192
4.0153
2.31633
1.01486
-0.004517
0.300975
4.07577
13.2923
27.7969
43.8803
54.7333
53.1489
35.4476
4.4441
-30.5577
-57.2804
-65.9457
-53.8821
-26.739
4.34108
28.0736
37.9524
34.2616
22.5759
10.0388
1.74678
-0.916907
0.3461
2.74192
4.24655
4.40733
3.97541
3.99767
5.0925
7.20512
9.78967
12.1602
13.7676
14.3285
13.8671
12.646
11.0596
9.53471
8.39926
7.81557
7.83404
8.51966
9.97642
12.3536
15.704
19.8223
24.1902
28.1063
30.9385
32.4111
32.7634
32.6302
32.6793
33.2174
33.9963
34.381
33.7833
32.0608
29.6418
27.2272
25.2907
23.6996
21.757
18.6718
14.1546
8.78461
3.80985
0.508185
-0.488473
0.41987
2.05124
3.12533
2.93917
1.69517
0.250466
-0.477608
-0.088464
1.07959
2.21054
2.53078
1.78296
0.329626
-1.13305
-2.00738
-2.13028
-1.77574
-1.39885
-1.36081
-1.76256
-2.50538
-3.43185
-4.41715
-5.35839
-6.11716
-6.55293
-6.61281
-6.43262
-6.31796
-6.52893
-7.10349
-7.81383
-8.3242
-8.44024
-8.22833
-7.91375
-7.62255
-7.15073
-6.05051
-4.02565
-1.35976
1.01432
1.90512
0.462634
-3.2517
-8.22008
-12.9844
-16.436
-18.31
-18.9571
-18.5558
-16.3093
-10.4668
0.472833
15.9136
31.9174
41.7764
38.7131
19.6131
-12.27
-47.4842
-73.8076
-81.5298
-67.9057
-38.3564
-3.8611
24.1264
38.5013
38.6882
29.5048
17.768
8.79806
4.61074
4.23386
5.40568
6.31057
6.45209
6.4223
7.06262
8.80759
11.4026
14.101
16.0897
16.8457
16.3537
15.0587
13.6371
12.7335
12.7265
13.5774
14.8712
16.0607
16.8331
17.2348
17.6578
18.6066
20.3966
22.9549
25.8123
28.3202
29.9571
30.5826
30.5415
30.524
31.2735
33.2198
36.2441
39.665
42.4541
43.6295
42.6687
39.7431
35.6567
31.4709
28.0448
25.6551
23.9244
22.1218
19.6047
16.1952
12.2716
8.57105
5.83629
4.44607
4.29696
4.90837
5.7099
6.31924
6.62506
6.78773
7.08491
7.75096
8.88404
10.3869
12.0157
13.4781
14.5738
15.292
15.7832
16.2292
16.6299
16.7166
16.1282
14.6641
12.5072
10.2594
8.64718
8.09663
8.41833
8.86165
8.5298
6.90592
4.17879
1.08835
-1.51095
-3.15426
-3.9457
-4.30963
-4.60239
-4.81382
-4.55167
-3.42074
-1.45432
0.659012
1.82382
1.06586
-1.89017
-6.31525
-10.7989
-14.02
-15.5077
-15.8146
-15.8089
-15.5457
-13.5489
-7.39466
4.37163
20.1289
34.3793
39.4821
29.4952
4.09613
-29.8281
-60.4152
-76.0483
-70.8932
-47.7118
-16.3364
11.1937
26.1453
26.3257
15.7192
1.38382
-10.3726
-16.4432
-17.1314
-14.766
-11.8947
-10.1481
-10.0038
-11.1477
-12.9473
-14.7439
-16.0142
-16.415
-15.7633
-14.0308
-11.2989
-7.83199
-4.21398
-1.37245
-0.398474
-2.06821
-6.29806
-11.8117
-16.4501
-18.0626
-15.5462
-9.49741
-1.9724
4.51121
8.1951
8.91232
7.97793
7.29213
8.20025
10.7188
13.6702
15.4509
15.0015
12.3863
8.6509
5.15915
2.81977
1.73454
1.38508
1.13594
0.741385
0.44137
0.678807
1.68027
3.1678
4.51206
5.09289
4.67724
3.54978
2.29999
1.49102
1.30621
1.48225
1.52168
1.04231
0.071694
-0.91331
-1.23631
-0.401544
1.5891
4.18244
6.52989
7.9295
8.18016
7.67153
7.16985
7.36395
8.46761
10.1244
11.6129
12.2624
11.8316
10.6496
9.42278
8.81394
9.11303
10.1107
11.2293
11.8754
11.728
10.8672
9.69553
8.74522
8.50185
9.29303
11.2179
14.1554
17.7719
21.4842
24.4398
25.6957
24.5337
20.8446
15.4115
9.73352
5.4773
3.69185
4.26617
6.14501
8.23087
10.5161
14.3983
21.7018
32.7801
44.9357
52.6225
49.857
33.807
7.42617
-20.7844
-40.2472
-43.3672
-29.3643
-4.67127
20.3398
36.4888
39.8208
32.5045
20.5743
10.171
4.62363
3.74993
5.22738
6.67964
7.06565
6.7593
6.66384
7.23769
8.17914
8.78935
8.60277
7.78233
7.01384
7.04471
8.20543
10.2153
12.3875
14.1106
15.2149
15.9744
16.8728
18.21
19.8798
21.4799
22.6756
23.5349
24.5814
26.4477
29.3856
32.9721
36.275
38.3836
38.9514
38.3732
37.4605
36.8686
36.6656
36.3497
35.2612
33.0587
29.951
26.5016
23.1728
20.0195
16.7146
12.9098
8.65752
4.52018
1.30327
-0.423651
-0.682054
-0.098413
0.501884
0.572352
0.13289
-0.32998
-0.298494
0.329717
1.10701
1.28203
0.281006
-1.87392
-4.50035
-6.60517
-7.42011
-6.77049
-5.1392
-3.33247
-2.00169
-1.35115
-1.1076
-0.8198
-0.195388
0.659381
1.30553
1.26408
0.385497
-1.32401
-3.27873
-4.66166
-4.7527
-3.26398
-0.588424
2.26978
4.18704
4.68149
4.43151
5.01251
7.87746
13.1441
19.1776
23.5903
25.1015
25.0807
27.275
35.3492
49.6718
65.5386
74.5031
68.5528
44.9196
8.44374
-30.1753
-59.499
-72.8317
-70.7829
-59.5532
-46.338
-35.0172
-24.9424
-13.3561
0.678889
13.9175
20.0504
13.6697
-5.54651
-31.4027
-53.6342
-62.9011
-55.4416
-34.7242
-9.38311
11.2021
21.1343
19.9086
11.4532
1.40205
-6.14065
-9.63044
-9.86069
-8.57626
-7.08268
-5.69534
-4.09877
-2.06946
0.093994
1.70514
2.14594
1.37203
0.037775
-0.881653
-0.612975
0.93258
3.11021
4.93264
5.60125
4.94259
3.5317
2.40387
2.52527
4.39852
7.93034
12.6042
17.7831
22.9538
27.7975
32.1308
35.815
38.7427
40.8813
42.3147
43.2287
43.8324
44.2987
44.702
45.0133
45.0696
44.5778
43.1582
40.4506
36.3098
30.9911
25.1646
19.7326
15.517
12.942
11.8989
11.885
12.2772
12.6132
12.705
12.5844
12.3814
12.1886
11.9897
11.6637
11.0415
9.977
8.4771
6.7858
5.35411
4.68808
5.0744
6.35108
7.90616
8.95432
8.93656
7.81774
6.08186
4.4095
3.26256
2.66745
2.29585
1.74969
0.849181
-0.28768
-1.38127
-2.2263
-2.79497
-3.21145
-3.61403
-4.07728
-4.63635
-5.3555
-6.33247
-7.60594
-9.09832
-10.5873
-11.8021
-12.5887
-12.9608
-13.002
-12.7339
-12.0993
-11.0354
-9.64092
-8.21004
-7.06699
-6.32939
-5.71687
-4.71036
-2.99602
-0.869458
0.691273
0.46428
-2.29348
-7.20449
-12.7758
-17.0983
-18.9176
-18.336
-16.675
-15.47
-15.2052
-14.7222
-11.8701
-5.15288
4.68432
14.324
19.2835
16.4478
6.24905
-6.98644
-16.9686
-18.6642
-10.9827
2.6281
16.0062
23.482
22.5729
14.7981
4.35678
-4.31357
-8.63518
-8.60167
-6.02276
-3.1188
-1.30699
-0.808367
-1.02653
-1.20677
-0.920962
-0.183789
0.699894
1.43023
1.891
2.20768
2.6912
3.63829
5.22117
7.4038
9.93848
12.5173
14.9244
17.132
19.2381
21.3495
23.449
25.3903
27.0267
28.4163
29.891
31.9181
34.8083
38.4628
42.3131
45.5372
47.4626
47.8776
47.0704
45.5965
43.9115
42.1344
40.0805
37.5193
34.4463
31.1773
28.1647
25.6895
23.6561
21.638
19.1528
15.992
12.3893
8.90196
6.12204
4.36149
3.52385
3.19913
2.91761
2.36108
1.53067
0.724631
0.362476
0.773204
1.9958
3.69217
5.25746
6.06739
5.78304
4.53668
2.87587
1.49409
0.846667
0.908873
1.22013
1.18588
0.522472
-0.428496
-0.785374
0.365098
3.33748
7.47127
11.3057
13.33
12.9345
10.9116
9.08457
9.17939
11.5476
14.6725
15.9456
13.4094
7.40146
0.971549
-1.43201
3.62967
16.4585
33.6314
49.4059
58.3464
57.6952
48.2688
33.5941
18.0309
4.99395
-3.87936
-8.51146
-9.68209
-8.34161
-5.42222
-1.90241
1.13683
2.71114
2.26618
-0.073793
-3.51181
-6.92734
-9.38664
-10.5636
-10.8171
-10.7758
-10.6046
-9.39448
-5.24374
3.69792
17.6024
33.7618
52.3049
47.4421
47.1697
50.122
54.0491
56.9725
58.0706
57.639
56.182
53.4295
48.2456
39.8442
29.4389
20.8501
19.0355
26.9122
42.5421
58.9742
67.3281
61.8283
43.8171
22.1268
9.28702
15.4496
43.0752
85.2364
128.153
156.812
161.262
140.817
104.346
66.3536
40.5959
33.8234
43.0121
57.6956
66.4635
64.0371
54.5495
48.6437
55.788
76.7261
101.274
113.496
101.504
65.883
21.0645
-11.7004
-15.7716
11.896
59.559
107.709
139.843
150.473
145.846
137.847
135.499
139.608
143.642
139.525
124.078
101.763
81.9696
73.0399
77.0837
88.9807
99.9207
102.873
96.2864
84.1444
73.0182
68.339
72.224
83.6096
99.3987
115.707
128.254
132.899
127.418
113.748
98.5805
90.9061
97.3988
117.513
142.033
156.787
150.294
120.967
79.3815
43.6151
29.77
42.8065
72.9328
99.9316
103.791
76.1041
25.9162
-23.6853
-46.8514
-28.4502
27.2612
97.9275
153.906
173.058
151.435
104.166
56.348
29.4497
30.8978
52.2086
75.8686
86.232
77.9222
57.6801
39.5369
36.81
55.495
92.0292
135.632
173.311
194.994
196.592
180.355
153.09
123.355
98.9496
85.0048
83.1148
91.3971
105.277
118.816
126.591
126.085
119.179
111.583
109.777
116.886
130.025
141.42
143.245
133.411
118.077
108.389
112.901
130.796
151.051
158.694
144.382
111.31
74.6187
53.2807
59.5064
91.9483
136.412
173.386
187.777
175.546
144.565
109.889
86.5309
82.9577
98.306
124.254
150.179
168.749
178.571
182.141
181.059
172.064
148.116
104.974
48.8295
-1.85173
-24.1403
-4.401
50.436
113.188
150.451
142.654
97.2792
45.9855
26.323
59.0704
135.254
220.965
276.322
276.648
223.643
141.498
62.0542
9.10511
-9.80074
-1.69976
19.6343
41.6074
57.1541
64.6901
65.6321
62.1716
56.1928
49.2114
42.5607
37.4029
34.3679
33.4021
33.8296
34.6813
35.5141
37.0917
41.7004
52.3318
70.8241
95.8349
121.759
140.31
144.446
132.665
111.168
91.4765
84.4253
93.8189
113.738
131.536
135.107
120.402
94.0537
69.4682
58.8
65.8181
84.1873
102.157
110.43
107.804
100.909
98.7284
105.648
117.851
125.529
119.429
97.2323
65.9405
38.8985
29.3623
44.0948
79.7412
123.799
159.435
172.099
156.215
117.787
72.0858
36.9501
24.624
36.0905
61.3513
85.104
94.7701
86.7161
67.6027
50.8399
50.5471
75.393
124.226
184.264
233.809
249.563
217.365
141.43
46.8478
-29.3499
-55.8443
-25.0088
40.6368
99.873
116.656
82.1558
21.0357
-23.6953
-18.3508
39.0262
116.877
169.737
166.198
106.8
20.9367
-53.8814
-95.1022
-104.829
-101.509
-102.074
-108.61
-108.618
-86.7069
-37.4553
30.2741
99.8664
158.031
200.797
231.399
252.25
259.47
244.872
204.211
144.699
84.9217
46.1934
40.5696
63.8623
98.7606
125.616
133.705
125.343
111.15
100.661
95.8746
91.9144
83.5775
71.4721
62.9942
66.3193
82.5239
103.306
116.222
114.462
103.562
99.0275
115.606
155.049
201.996
232.056
227.681
190.428
140.76
105.055
98.6531
116.88
140.304
150.413
143.857
134.491
142.159
176.874
230.165
279.738
304.39
298.233
274.143
253.728
251.591
265.098
276.699
266.704
227.399
169.036
113.566
81.4026
80.3166
103.358
136.095
166.708
191.243
211.023
225.843
229.997
215.256
178.828
129.555
86.466
69.385
86.665
128.615
173.67
202.244
208.588
202.35
198.867
205.501
214.745
210.095
180.574
132.234
86.6885
66.6812
79.2476
109.512
130.772
123.853
91.9819
59.6663
55.8157
93.3758
160.63
229.567
274.54
288.308
284.098
282.917
296.351
317.649
326.875
305.484
250.01
175.886
109.817
76.1335
85.4856
131.046
192.128
242.827
262.223
242.079
190.547
130.283
90.2183
92.8963
142.645
220.905
292.866
323.796
296.26
219.204
124.271
50.85
27.5532
60.1297
131.086
209.953
267.708
288.261
272.767
236.504
200.666
182.714
188.929
212.148
235.576
241.212
219.594
175.852
128.282
99.4866
104.763
143.613
199.298
247.365
268.309
256.965
223.677
187.14
163.692
159.295
168.635
180.85
186.968
184.527
177.394
171.866
171.728
176.023
180.582
180.987
175.661
167.421
162.339
166.49
182.014
204.301
222.383
223.508
200.377
157.246
110.742
83.527
92.9059
140.608
210.193
274.721
310.903
311.55
288.334
262.684
250.551
251.255
248.259
221.701
164.635
91.5987
32.9444
17.7305
56.1723
132.657
213.75
266.114
273.421
242.358
195.47
156.88
139.879
142.917
154.424
161.59
157.633
144.254
129.218
121.893
128.967
151.626
184.409
216.612
235.682
232.388
205.782
164.564
123.629
97.3351
93.2132
109.265
135.962
161.43
176.925
179.728
172.841
162.806
156.842
159.939
171.727
184.752
186.345
164.879
118.399
60.32
17.1049
16.3099
70.5549
166.949
270.03
338.266
345.235
292.84
208.854
130.314
83.6907
74.0139
88.6995
110.956
132.455
156.532
190.146
232.208
268.045
275.251
237.523
157.368
58.8249
-22.219
-55.4247
-31.3216
34.0312
107.737
156.867
164.754
138.625
104.535
92.746
121.422
187.193
267.018
330
352.744
330.007
275.369
212.459
162.524
135.269
127.675
129.65
132.122
132.504
134.489
143.303
160.264
180.445
194.572
193.52
173.057
136.138
92.1286
53.5877
32.0882
34.5323
60.6886
103.051
148.933
184.489
199.263
190.032
162.43
128.87
103.446
96.0415
107.931
130.949
150.88
153.277
130.807
87.8401
40.1273
8.90589
10.9123
48.9405
108.041
160.981
181.618
159.519
107.106
53.998
30.6265
50.3945
101.614
154.582
179.848
166.312
127.441
91.5521
83.5563
109.45
153.73
190.62
200.783
182.107
148.181
117.048
99.3789
94.1362
93.7216
93.0373
94.4958
104.81
126.315
150.433
159.461
136.921
80.1182
5.89644
-55.3152
-74.6419
-40.5774
33.9468
117.518
176.339
191.327
166.917
126.796
98.8611
99.3743
124.658
155.1
168.581
154.785
121.562
89.7099
79.693
98.6182
135.766
168.972
177.679
154.599
109.27
62.165
33.1596
31.3974
52.013
80.6668
101.8
106.917
97.8759
84.2261
76.5291
79.4334
88.5226
93.0814
84.0142
62.203
41.3994
41.9976
77.9158
144.041
213.275
247.638
218.987
127.539
6.20514
-93.5509
-127.502
-81.7769
20.009
129.707
199.79
206.623
159.371
91.4014
40.5416
29.6701
57.4777
102.564
136.915
140.84
111.994
64.9792
22.4652
2.95018
11.6228
38.727
66.555
80.5148
77.8498
68.4581
67.4268
84.1795
115.184
145.211
156.279
138.812
97.3554
47.6643
7.49819
-12.6957
-13.3718
-2.17419
13.5983
32.3859
58.0356
94.3573
139.024
181.729
208.36
208.668
182.268
139.24
94.8873
61.9269
45.0698
40.7404
41.3977
41.0864
38.5814
36.6422
38.3436
43.7489
49.4541
-5.67452
-4.26197
-2.06487
0.272732
2.34531
4.32042
6.72502
9.82315
13.1002
15.3061
15.1911
12.3736
7.79279
3.34419
0.817645
0.799097
2.2573
3.27034
2.55561
0.890589
1.30405
7.49679
21.1757
39.8009
56.4778
62.6852
52.7655
27.7571
-3.89864
-29.6513
-38.7269
-27.4643
-1.14588
28.7294
50.198
56.3926
48.0028
31.6555
15.6448
5.6768
2.87023
4.60937
7.15955
8.05531
7.05714
5.50168
4.88971
5.79027
7.62057
9.20927
9.57631
8.46546
6.33808
4.02565
2.30183
1.57273
1.86189
2.92112
4.38574
5.87253
7.10781
7.9852
8.63295
9.42119
10.8521
13.3295
16.8786
21.0007
24.7967
27.3528
28.1996
27.5489
26.2076
25.1426
24.9433
25.4978
26.0516
25.5951
23.3931
19.3774
14.1656
8.77805
4.21686
1.07702
-0.58599
-1.13834
-1.08743
-0.817727
-0.471532
-0.01221
0.588582
1.18755
1.50288
1.2388
0.291642
-1.13883
-2.62579
-3.74204
-4.2954
-4.43911
-4.54946
-4.95226
-5.69958
-6.52658
-7.01583
-6.88981
-6.20562
-5.37568
-4.90669
-5.0735
-5.71985
-6.28682
-6.10387
-4.75473
-2.33199
0.566414
3.0988
4.60255
4.96526
4.71122
4.79619
6.14083
9.12227
13.372
17.8573
21.26
22.4696
20.9975
17.1218
11.8353
6.49533
2.32634
-0.055057
-0.874171
-0.935092
-0.859843
-0.181506
2.95347
10.9444
24.8728
42.6088
58.3622
64.5488
55.4879
31.0823
-1.82887
-31.6639
-47.1428
-42.5764
-20.614
9.17942
35.0614
48.5545
47.7153
36.7827
22.9253
12.237
7.19487
6.62515
7.61086
7.70644
6.21569
4.00904
2.44119
2.27532
3.27244
4.54325
5.23034
5.06697
4.4282
3.99479
4.276
5.269
6.57089
7.69058
8.44148
9.08658
10.2228
12.3927
15.7332
19.8148
23.7834
26.7469
28.2156
28.354
27.9145
27.9464
29.3161
32.3261
36.5349
40.908
44.2597
45.7212
45.0577
42.6715
39.3295
35.7784
32.4683
29.5235
26.8774
24.4539
22.261
20.3221
18.5836
16.8871
15.0753
13.1206
11.1998
9.57186
8.41422
7.67619
7.11697
6.47602
5.65644
4.77962
4.03047
3.514
3.1624
2.8417
2.49536
2.23453
2.23405
2.51867
2.88104
3.01472
2.80629
2.49979
2.55682
3.27214
4.43959
5.39164
5.46648
4.59733
3.52513
3.35429
4.74744
7.36095
9.9333
11.138
10.5185
8.88282
7.8341
8.59131
11.0649
13.7672
14.7725
12.9598
8.81391
4.12503
0.82812
-0
-6e-006
-2.1e-005
-4.3e-005
-6.5e-005
-7.8e-005
-7.9e-005
-7.7e-005
-9.5e-005
-0.000154
-0.000249
-0.00035
-0.000409
-0.000401
-0.000356
-0.000355
-0.000481
-0.000747
-0.001046
-0.001195
-0.001055
-0.000686
-0.00045
-0.000985
-0.00304
-0.00531
0.010716
0.035961
0.049611
0.023938
-0.047107
-0.143713
-0.199314
-0.159069
-0.033927
0.06847
0.011862
-0.272173
-0.680115
-0.955004
-0.854461
-0.372843
0.158437
0.198689
-0.608992
-2.05182
-3.20578
-2.69614
0.648044
7.10573
15.749
24.7226
32.0438
36.4706
38.0106
37.7821
37.302
37.6446
38.9489
40.5236
41.4035
40.9759
39.2688
36.8061
34.1676
31.6142
29.0301
26.1509
22.8858
19.4577
16.2721
13.6257
11.4837
9.55607
7.53967
5.39454
3.44008
2.10334
1.59694
1.71212
1.90869
1.669
0.910035
0.075171
-0.117479
0.822781
2.82178
5.20078
7.04293
7.71367
7.18048
5.96928
4.83991
4.35446
4.66226
5.54366
6.61024
7.54881
8.21277
8.60479
8.81782
8.96098
9.14179
9.39358
9.62795
9.68509
9.45047
8.97379
8.54371
8.57472
9.35267
10.8059
12.3768
13.222
12.6168
10.3415
6.856
3.13093
0.220887
-1.22769
-1.25673
-0.423019
0.761898
2.55041
6.20909
13.4134
24.9046
39.0655
51.5525
56.6478
50.0167
31.5469
6.48071
-16.212
-27.6818
-23.4101
-5.38999
18.8633
39.9764
50.9999
50.0618
40.2326
27.1171
15.8376
9.01806
6.55852
6.72661
7.5928
7.92449
7.35715
6.11469
4.64884
3.4301
2.83139
3.00707
3.81815
4.87898
5.74074
6.14549
6.12199
5.91095
5.77311
5.8179
6.01305
6.33725
6.90899
7.93576
9.52419
11.512
13.4856
14.9962
15.8601
16.2892
16.7594
17.6898
19.1661
20.8779
22.3032
23.0052
22.8152
21.7994
20.0785
17.688
14.6076
10.9377
7.04343
3.52095
0.941452
-0.430329
-0.787237
-0.636527
-0.462605
-0.457713
-0.453376
-0.15004
0.587163
1.57433
2.40034
2.6895
2.34866
1.59924
0.810739
0.270089
0.075915
0.193353
0.600034
1.35397
2.52072
4.01136
5.45112
6.27772
6.01458
4.60876
2.57656
0.840707
0.330109
1.49229
4.01378
6.92346
9.03643
9.53622
8.38303
6.2972
4.38968
3.58442
4.21448
5.95979
8.14434
10.1903
11.9355
13.5714
15.2709
16.8428
17.7072
17.1855
15.0122
11.6243
7.98794
5.03206
3.10895
1.96506
1.35398
1.86998
5.21588
13.358
26.7995
43.0235
56.3946
60.1221
49.6632
39.0343
63.5638
63.3568
45.4594
22.6311
6.55768
2.92914
10.193
21.9473
31.2286
34.1315
31.2872
26.6353
24.6693
27.6544
34.3856
41.0358
43.7921
41.4035
35.9768
31.4117
30.6849
33.8941
38.2177
40.0106
37.8021
33.7033
32.0571
36.1524
45.3078
54.7409
58.6029
54.1746
44.3516
36.2386
36.6341
47.3871
63.8662
77.5813
81.49
74.4149
61.6556
51.5532
50.2592
58.0337
69.4722
77.0202
75.3147
63.9617
47.3474
31.9401
22.9301
22.0603
27.2213
33.7816
36.8602
33.5799
24.4395
13.3041
5.8434
6.65118
16.6745
32.2129
46.4198
52.7668
48.6331
36.6847
23.4344
15.723
17.0227
25.8058
36.776
44.0303
44.1251
37.4483
27.5077
18.7011
14.0453
14.0213
16.9324
20.3917
22.8702
24.3418
25.9661
29.0053
33.741
39.0677
43.0856
44.1178
41.5303
36.0977
29.6218
24.1069
21.0235
20.7483
22.5842
25.1609
26.9195
26.8172
24.9693
22.7144
21.8815
23.5508
26.9498
29.3279
27.4873
20.3329
10.9107
6.13551
13.5989
36.6592
70.7183
103.341
119.063
106.826
66.1662
8.52383
-47.3331
-83.5266
-90.7831
-71.5948
-37.6882
-3.67887
19.5432
28.3654
25.8164
18.0772
10.6683
6.29064
4.93806
5.37887
6.57402
8.19143
10.2314
12.4732
14.337
15.2472
15.1271
14.5409
14.3282
15.0046
16.3505
17.4939
17.3918
15.4983
12.1505
8.429
5.66543
4.83013
6.13638
9.05181
12.6503
16.1095
19.0671
21.6114
24.061
26.6859
29.4897
32.2307
34.5789
36.2409
36.9989
36.7213
35.4381
33.4187
31.2566
29.745
29.5266
30.6552
32.3211
33.0531
31.344
26.4689
19.0136
10.7685
3.95086
0.189681
-0.182772
1.82924
4.51957
6.40505
6.87018
6.20821
5.17262
4.39512
4.08901
4.16511
4.58095
5.58469
7.59836
10.8012
14.7583
18.3811
20.3141
19.581
16.1088
10.8326
5.35684
1.32124
-0.1438
1.26336
5.04631
10.1719
15.3879
19.4584
21.3668
20.5249
16.9802
11.5634
5.83541
1.68813
0.653847
3.26693
8.73766
15.183
20.3948
22.7194
21.7776
18.4981
14.4736
11.0624
8.77014
7.21397
5.64314
3.65338
1.53075
0.02367
-0.297652
0.537487
2.09175
4.28939
8.10726
15.3256
27.1418
42.3229
56.2666
62.0848
53.6796
29.3967
-5.87636
-41.7121
-66.172
-70.9687
-55.1628
-25.4429
7.09167
31.8496
42.8934
40.4512
29.4993
16.6142
6.94648
2.63584
2.9833
5.73971
8.57177
10.0294
9.81544
8.51259
7.07531
6.29044
6.40741
7.13106
7.93379
8.51075
9.11425
10.406
13.0252
17.0051
21.462
24.8641
25.7975
23.7674
19.5419
14.8796
11.7606
11.6106
14.8226
20.7679
28.1106
35.2096
40.508
42.9017
42.1056
38.8911
34.9679
32.3607
32.4551
35.164
38.7961
40.87
39.4655
34.3404
27.1269
20.426
16.3472
15.3788
16.2149
16.6515
14.8873
10.5055
4.63361
-0.695191
-3.5602
-2.94133
0.970138
6.94364
13.1431
17.6824
19.1615
17.1019
12.2011
6.2292
1.49247
-0.088263
2.18794
7.43903
13.5106
17.9289
18.9933
16.4876
11.637
6.45598
2.81698
1.69914
2.95508
5.63558
8.58248
10.9522
12.4305
13.1413
13.3369
13.1218
12.3557
10.8352
8.5998
6.13554
4.34715
4.19578
6.25472
10.4065
15.7892
21.01
24.602
25.4884
23.2634
18.3182
11.6851
4.73467
-1.24423
-5.36344
-7.14239
-6.14946
-1.59687
7.6263
22.1052
40.5172
58.5554
69.3721
65.9147
44.5322
7.93648
-34.3939
-69.1915
-84.7628
-76.1197
-47.2205
-9.15367
24.8421
44.9266
48.072
37.9993
22.2106
8.0372
-0.276164
-2.32793
-0.395703
2.565
4.53049
4.98279
4.56652
4.28965
4.83595
6.25708
8.14107
10.0026
11.6086
13.0587
14.5772
16.2498
17.8938
19.1138
19.5159
19.0019
17.9278
17.0143
17.0937
18.7367
22.0152
26.4262
31.0499
34.8754
37.1829
37.8363
37.2914
36.3155
35.6191
35.5355
36.0219
36.7969
37.6209
38.3915
39.0403
39.3467
38.8899
37.1865
33.9851
29.5106
24.4206
19.5234
15.4018
12.1993
9.66906
7.43084
5.24782
3.14071
1.33186
0.123697
-0.209891
0.516358
2.35401
5.14929
8.46399
11.5825
13.6678
14.0707
12.6169
9.72601
6.2642
3.21078
1.3065
0.821092
1.53535
2.91838
4.35891
5.37404
5.71521
5.344
4.43516
3.30601
2.34301
1.90908
2.23264
3.3314
4.96271
6.65207
7.77144
7.71184
6.16845
3.34629
0.059528
-2.47523
-3.11603
-1.28253
2.73505
7.76636
12.1839
14.5802
14.2894
11.6222
7.67515
3.8216
1.06088
-0.37562
-0.927133
-1.02657
-0.219927
3.22285
11.6001
25.9682
44.1361
59.9468
64.9383
52.2266
20.7736
-22.4365
-64.1037
-89.9046
-90.9517
-67.9777
-30.9336
5.85149
30.3156
37.6032
30.8878
18.1802
7.40341
2.60933
3.19367
5.82032
0.440176
1.63817
4.13963
7.11395
9.20511
9.32297
7.36803
4.32016
1.78995
1.30641
3.59784
8.25389
13.8973
18.7549
21.4222
21.5252
19.9328
18.3577
18.5699
21.5505
27.0787
33.9295
40.4988
45.4856
48.3125
49.1691
48.7496
47.8796
47.2092
47.0361
47.2497
47.3949
46.8551
45.1405
42.1955
38.5297
34.9998
32.3211
30.6218
29.2487
27.1075
23.3658
18.0843
12.3144
7.58928
5.06475
4.80788
5.75907
6.38279
5.56416
3.2474
0.446725
-1.41625
-1.38461
0.518566
3.33925
5.76138
6.81146
6.2909
4.75553
3.10037
2.072
1.9383
2.48668
3.21926
3.61262
3.32804
2.32611
0.913441
-0.371685
-0.949269
-0.441789
1.05929
2.90004
4.06099
3.62304
1.28371
-2.37726
-6.0673
-8.29461
-8.0221
-5.11385
-0.356997
4.83456
9.00381
11.2242
11.3151
9.74289
7.35302
4.96184
3.07358
1.79022
0.902629
0.077312
-0.986066
-2.40994
-3.96601
-4.8345
-3.46536
2.09304
13.197
29.2575
46.755
59.5726
61.0369
47.0892
18.9684
-16.2057
-47.729
-65.6203
-64.9037
-47.6392
-21.6618
3.22042
19.4907
24.5298
20.5574
12.4171
4.83052
0.492115
-0.263939
1.36182
3.77111
5.72414
6.59781
6.29385
5.09197
3.51937
2.14153
1.31882
1.04303
0.996022
0.870693
0.602088
0.481929
0.994664
2.43817
4.64133
7.05828
9.13881
10.6913
12.0181
13.7536
16.4987
20.493
25.495
30.898
35.9703
40.0967
42.9069
44.2993
44.4072
43.5559
42.1992
40.7836
39.6366
38.8462
38.2407
37.4457
36.0137
33.5825
30.0654
25.7286
21.1269
16.9229
13.6042
11.2524
9.49712
7.78755
5.77817
3.57757
1.66569
0.524599
0.278809
0.700502
1.60209
3.30796
6.7283
12.7768
21.3975
30.8985
38.2307
40.2563
35.3669
24.5169
10.9545
-1.27315
-9.19182
-12.049
-11.1755
-8.77038
-6.46833
-4.63114
-2.65148
0.113854
3.54171
6.65765
8.29886
7.94057
6.07195
3.91096
2.67042
2.91792
4.42977
6.47625
8.40871
9.97122
11.2265
12.2083
12.6399
11.9388
9.623
5.76958
1.13783
-3.1361
-6.17638
-7.81494
-8.47275
-8.40866
-6.91331
-2.27974
7.08603
20.8551
35.5313
44.9864
43.0932
27.2443
0.721786
-27.7963
-47.7658
-51.6477
-38.4986
-14.3009
11.102
28.717
34.1785
28.773
17.6275
6.51248
-0.835006
-3.62069
-3.16795
-1.40392
0.330793
1.63039
2.69072
3.81117
5.12583
6.60458
8.15551
9.72602
11.3273
13.017
14.8732
16.8751
18.8648
20.5487
21.5922
21.8156
21.3975
20.8875
20.9938
22.2793
24.8986
28.5362
32.554
36.2492
39.0674
40.7289
41.2654
40.9836
40.3764
39.9565
40.0569
40.6586
41.3736
41.5997
40.8182
38.8449
35.8988
32.4474
28.945
25.6246
22.4821
19.4137
16.3799
13.4652
10.7833
8.35157
6.07245
3.85668
1.80974
0.269968
-0.369302
0.056327
1.29491
2.7561
3.81685
4.18579
4.04846
3.92338
4.28001
5.20659
6.35487
7.15945
7.19824
6.48336
5.47795
4.83081
5.02026
6.05899
7.41794
8.25842
7.88428
6.19063
3.84561
2.05135
1.92276
3.86488
7.25674
10.6982
12.7433
12.6844
10.9659
8.98794
8.34316
9.88868
13.1942
16.696
18.3929
16.8615
11.9772
4.98828
-2.08266
-7.37422
-9.87997
-9.47401
-6.32455
-0.258327
9.24413
22.1393
36.5804
48.3782
52.069
43.5104
22.6932
-5.02784
-30.4864
-44.5881
-42.5899
-26.3523
-3.26424
17.5321
29.4485
30.9444
25.1014
16.972
10.5909
7.32907
6.24755
5.64337
4.48729
2.88291
1.55165
1.01105
1.16974
1.55247
1.76597
1.82192
2.08262
2.89577
4.34441
6.21524
8.19053
10.1026
11.9808
13.9002
15.8065
17.5415
18.9784
20.2823
21.9851
24.7766
29.0881
34.6948
40.6089
45.4073
47.8755
47.6434
45.4597
42.8499
41.3549
41.7524
43.6761
45.8371
46.7095
45.3075
41.6082
36.4568
31.0525
26.3569
22.7669
20.0987
17.8832
15.6636
13.2398
10.6782
8.23846
6.23292
4.9009
4.28867
4.19914
4.24134
4.00094
3.25314
2.11265
0.99977
0.41107
0.589225
1.36254
2.20124
2.54347
2.11858
1.10008
-0.009489
-0.711885
-0.80532
-0.472805
-0.139233
-0.213867
-0.850351
-1.88391
-2.93071
-3.57321
-3.59751
-3.06133
-2.25124
-1.51508
-1.03621
-0.692782
-0.059058
1.39034
3.87693
6.98242
9.61799
10.4623
8.63076
4.30717
-1.17052
-5.9144
-8.54004
-8.95554
-8.31502
-7.88166
-7.59784
-5.41503
1.70853
15.4066
33.4919
49.4021
54.4705
42.2841
12.8285
-26.1742
-61.8864
-81.9156
-79.9236
-58.2945
-26.5538
3.44001
22.7876
28.6471
23.9419
14.503
5.66919
0.189086
-1.88899
-1.9328
-1.28169
-0.520883
0.385993
1.56075
2.84873
3.86219
4.19957
3.73106
2.65465
1.38273
0.377935
-0.026807
0.307319
1.35428
2.94833
4.84895
6.86042
8.94289
11.1622
13.6056
16.2361
18.8714
21.2686
23.3097
25.1161
26.9947
29.2336
31.8323
34.3941
36.26
36.8506
36
34.0845
31.8401
29.9619
28.7334
27.9088
26.8958
25.1076
22.2899
18.6253
14.6049
10.7799
7.54911
5.08065
3.3378
2.18288
1.45278
1.00452
0.734414
0.592236
0.604806
0.843309
1.38776
2.24569
3.34082
4.51828
5.61974
6.56803
7.37767
8.11046
8.81806
9.50722
10.1185
10.586
10.8809
11.0273
11.0578
10.9615
10.6978
10.2456
9.69046
9.21341
9.0269
9.27026
9.95126
11.0109
12.3746
13.9947
15.8922
18.0759
20.371
22.3427
23.4083
23.0237
20.9431
17.4027
13.0654
8.73401
4.99527
2.10774
0.270205
0.184603
3.34981
11.5498
25.4357
42.9377
58.6639
65.2838
56.7171
31.7238
-4.21611
-40.2136
-64.256
-68.4857
-52.7145
-24.2836
5.59452
27.0151
35.3111
31.9225
22.2725
12.2955
5.63473
2.83275
2.36162
2.35982
1.86728
1.02108
0.473025
0.683295
1.60178
2.7855
3.76029
4.30177
4.51233
4.75801
5.4383
6.74834
8.62461
10.7611
12.7269
14.1823
15.1148
15.8673
16.9459
18.7423
21.2817
24.2334
27.1167
29.6112
31.719
33.6797
35.7265
37.8599
39.7992
41.1801
41.7929
41.7025
41.1169
40.1471
38.6566
36.3649
33.1022
29.0614
24.7987
20.9725
17.9774
15.7582
13.9045
11.941
9.63775
7.12643
4.76068
2.86915
1.58929
0.858249
0.522422
0.458354
0.623237
0.991531
1.51689
2.13203
2.80654
3.56544
4.44475
5.40843
6.3003
6.89738
7.0608
6.88316
6.67363
6.76931
7.29972
8.06804
8.65477
8.71241
8.22068
7.48935
6.95998
6.90206
7.25785
7.78152
8.29453
8.91989
10.0633
12.1006
14.9274
17.772
19.443
18.8804
15.7934
10.9143
5.65977
1.40305
-1.22289
-2.47049
-2.84353
-2.10366
1.22308
9.11656
22.3111
38.5107
51.9942
55.5414
44.0506
17.9925
-15.5118
-45.0663
-59.9397
-55.0871
-33.481
-4.51052
20.6407
34.0347
33.8681
24.0475
11.1704
0.962779
-3.95303
-4.17225
-2.07964
-0.109554
0.389162
-0.643273
-2.41509
-3.85981
-4.10565
-2.89016
-0.628177
1.7962
3.50189
4.17101
4.23408
4.53886
5.70928
7.5988
9.31789
9.86921
8.94939
7.20685
5.7945
5.52132
6.30788
7.51513
8.82949
10.956
15.3952
23.2688
33.9897
44.8225
51.9607
52.5633
46.4702
36.4716
26.8097
20.8513
19.397
20.6528
21.7263
20.5727
17.0746
0
-0
-1e-006
-3e-006
-6e-006
-9e-006
-1.8e-005
-3.7e-005
-6.6e-005
-9.6e-005
-0.000115
-0.000118
-0.000109
-9.8e-005
-0.000103
-0.00014
-0.000212
-0.000299
-0.000361
-0.00036
-0.000281
-0.000163
-0.0001
-0.000194
-0.000479
-0.000878
-0.001055
0.001278
0.005398
0.004392
-0.002055
0.008058
0.03417
0.043475
0.009621
-0.079929
-0.190826
-0.279745
-0.310459
-0.255238
-0.120836
0.023008
0.064941
-0.074267
-0.39977
-0.783291
-0.968053
-0.704538
0.035399
0.912151
1.39411
1.30844
1.49649
3.96856
11.0769
23.8257
40.1404
54.4437
59.3518
49.1092
23.1311
-12.4678
-46.6221
-67.8101
-69.134
-51.3461
-22.2147
7.32454
28.115
36.2337
33.4734
25.0985
16.5615
11.0299
8.79449
8.32635
7.90156
6.724
5.1016
3.85791
3.64868
4.56902
6.16031
7.70743
8.64501
8.8067
8.49478
8.30906
8.8424
10.4004
12.8126
15.468
17.6336
18.9039
19.449
19.9661
21.3306
24.1225
28.3335
33.3566
38.2453
42.0704
44.2651
44.7064
43.672
41.7172
39.4755
37.5015
36.1314
35.3879
34.9746
34.3974
33.1383
30.8282
27.3322
22.7717
17.5294
12.2675
7.90941
5.46508
5.65145
8.40965
12.6247
16.2851
17.2103
14.062
7.12443
-1.64366
-9.36069
-13.4664
-12.8101
-8.11279
-1.52078
4.44347
7.99107
8.72296
7.52301
5.88162
4.98136
5.12033
5.70293
5.80952
4.93727
3.43676
2.30205
2.44379
3.9388
5.79426
6.53272
5.22021
2.22311
-0.913524
-2.29939
-0.889521
2.89397
7.46139
11.1062
13.0638
13.8536
14.6433
16.1414
17.9148
18.6109
16.9359
12.6714
6.95437
1.56244
-2.27399
-4.55835
-6.05535
-6.91929
-5.5456
1.11974
15.457
36.3771
57.8133
70.1471
64.502
37.8608
-3.93691
-47.5161
-77.4607
-83.3148
-64.3937
-29.8392
6.05192
30.5968
38.0308
30.7724
16.6318
3.97173
-2.28811
-1.99156
1.68996
4.97445
5.71192
4.05475
1.60622
0.027549
0.017952
1.1505
2.37246
2.8287
2.37459
1.59202
1.3606
2.31241
4.47433
7.34043
10.2094
12.5761
14.3922
16.0106
17.8813
20.2481
23.0225
25.9164
28.6764
31.276
33.9157
36.8412
40.0919
43.3754
46.1186
47.7438
48.0075
47.2136
46.1669
45.7585
46.4066
47.6271
48.1053
46.3014
41.3403
33.6997
25.216
18.3129
14.8246
15.0758
17.7502
20.6468
21.78
20.227
16.3132
11.1345
5.91303
1.62515
-1.00868
-1.42151
0.679242
4.92601
9.95924
13.6704
14.1423
10.8412
5.30031
0.617059
-0.157793
4.14731
11.942
19.5321
23.0612
20.5963
13.0869
3.66695
-4.19271
-8.47814
-9.34237
-8.44026
-7.54237
-7.44448
-7.80357
-7.78129
-6.89113
-5.33336
-3.70648
-2.41326
-1.24828
0.360639
2.71195
5.2843
6.87291
6.21962
2.87339
-2.3883
-7.89243
-11.9991
-13.9944
-14.2683
-13.589
-11.9029
-7.74619
1.05147
15.4614
33.2628
48.5487
53.6284
42.8043
16.0903
-19.4466
-51.9217
-69.6881
-66.6682
-45.1046
-14.2243
14.4041
32.1904
36.7562
31.6275
23.0983
16.3844
13.307
12.4794
11.3366
8.39054
4.25428
1.02502
0.661286
3.52512
8.03891
11.5886
12.091
9.28808
5.00593
2.23368
3.44277
9.11499
17.3633
24.8021
28.2449
26.3279
20.2579
13.1431
8.42182
8.19585
12.4007
19.1489
25.9674
31.1474
34.4512
36.9017
39.8402
43.9321
48.6834
52.6888
54.4253
53.058
48.8316
42.8868
36.6533
31.2067
26.8702
23.2827
19.7866
15.9569
11.9091
8.22109
5.59065
4.39067
4.40019
4.89478
5.06437
4.45661
3.20922
1.9191
1.23344
1.49469
2.63952
4.40239
6.61829
9.34527
12.6587
16.254
19.2955
20.7212
19.8742
17.111
13.8853
12.098
13.0346
16.5106
20.8361
23.6273
23.0849
18.9907
12.8414
7.05944
3.78608
3.85783
6.5083
9.9138
12.1768
12.2243
10.2142
7.2803
4.84908
3.95957
4.88375
7.18208
10.1388
13.2607
16.5727
20.5283
25.5133
31.2926
36.7243
39.9663
39.2614
33.8971
24.7746
14.2373
5.12939
-0.398723
-1.54959
1.41726
8.08782
18.5352
32.904
50.0827
66.3796
75.7142
71.9241
52.2565
20.0867
-15.216
-41.8036
-50.5675
-39.3224
-13.6743
15.9115
39.0847
49.8673
48.107
38.0048
25.0891
13.574
5.36785
0.633326
-1.15787
-0.579495
1.71751
4.6683
6.79154
6.67919
3.69867
-1.67426
-8.06564
-13.9088
-18.1747
-20.6637
-21.7565
-21.8026
-20.5817
-17.2697
-10.9406
-1.29173
10.7746
23.1893
33.4665
39.7556
41.6907
40.5669
38.642
38.0036
39.6259
43.1352
47.2924
50.8468
53.2524
54.7716
56.0713
57.5998
59.1354
59.8057
58.4785
54.3203
47.2832
38.2983
29.0237
21.28
16.4385
14.9342
16.1367
18.6768
21.016
22.0348
21.3975
19.5097
17.1398
14.959
13.2678
11.9667
10.7934
9.56694
8.31252
7.13992
6.05226
4.89304
3.50718
2.02725
1.00696
1.20345
3.05706
6.22236
9.57537
11.758
11.9646
10.4884
8.632
7.94897
9.27882
12.2339
15.3546
16.8965
15.6676
11.5291
5.36303
-1.32396
-6.90117
-10.0198
-9.88541
-6.50814
-0.835044
5.4409
10.4111
12.7695
12.418
10.5515
9.09431
9.63701
12.5199
16.5987
19.8635
20.5077
17.9445
13.1972
8.37036
5.47482
5.27968
6.94485
8.78405
9.80563
11.0007
15.2319
25.4208
41.8814
60.536
73.641
73.1996
55.5065
24.1359
-10.5742
-35.7679
-41.9719
-27.4565
1.19013
32.4511
55.2785
63.6056
57.8988
43.491
27.1196
13.7891
5.42819
1.48128
0.475302
1.37244
4.00547
8.53348
14.553
20.6317
24.6343
24.7282
20.4958
13.4885
6.86457
4.03883
6.96569
15.0316
25.0395
32.4983
33.8072
28.0994
17.8338
7.7261
2.50707
4.67915
13.457
25.4395
36.6351
44.481
48.8252
51.3662
54.0264
57.527
61.0443
63.0623
62.756
60.7841
58.9467
58.914
60.9433
63.4714
63.8326
59.681
50.3634
37.4803
24.4959
15.6373
14.3582
21.8924
36.3868
53.0911
65.8113
69.3521
61.8266
45.4955
25.6313
7.82427
-4.62318
-11.5504
-14.5505
-14.4416
-9.80364
2.11495
22.4961
48.2998
72.1873
85.7421
84.0533
68.9374
48.4944
32.4243
26.503
29.7275
35.57
36.8758
30.9725
21.4988
15.7205
19.2185
31.578
46.1653
54.2887
51.1518
39.6396
29.28
30.8447
49.5851
81.2781
113.572
131.976
127.092
99.0957
57.0813
14.2368
-18.2107
-34.8151
-35.8461
-24.708
-5.15432
19.7711
46.8868
71.6457
88.4473
92.8116
84.0183
66.2365
46.9867
33.573
29.6483
33.8787
41.5286
47.7112
50.3818
51.1941
53.9597
61.7892
74.7201
88.9707
98.4963
98.0476
85.8074
64.6707
41.6584
25.2045
21.7911
33.3617
56.4917
83.552
105.533
115.295
110.072
92.4344
69.263
49.1213
38.8638
40.8949
52.197
65.5468
72.7433
68.4874
52.9057
31.2941
11.2746
-0.990557
-3.48091
1.53483
9.7698
17.7529
24.4165
30.6072
37.2668
43.8529
48.3464
48.7694
44.9993
39.3765
35.5776
36.3877
41.9559
49.5364
54.977
54.9242
48.506
37.5639
25.46
15.3219
8.82585
5.96497
5.68202
6.8237
8.73586
11.3479
14.8698
19.4882
25.1962
31.7979
38.8773
45.6939
51.1468
54.0247
53.5034
49.6833
43.6789
37.1378
31.2871
26.3166
21.5986
16.4332
11.0124
6.82425
5.99212
9.73577
17.1356
25.1413
29.9367
28.9844
22.445
13.0681
4.63654
-0.005566
-0.078666
3.2673
8.08044
12.8735
17.027
20.3874
22.5801
22.7132
20.0773
15.2311
10.5326
9.51424
15.0099
27.2035
42.542
54.5564
56.5978
45.4168
23.5212
-0.999706
-17.5629
-17.6674
1.21624
34.5723
73.1482
107.482
132.151
147.296
156.506
162.399
162.957
151.455
120.586
68.7264
4.08415
-56.573
-94.8623
-100.007
-74.9408
-35.3418
-1.64844
11.4264
1.90277
-19.7794
-37.9117
-40.7299
-26.0755
-0.706989
25.3498
45.0591
57.1775
64.2411
68.4146
69.0346
63.6008
51.2526
35.4624
23.2292
21.0906
30.6974
47.1334
61.4425
65.6957
57.5803
41.4657
25.4313
16.4105
16.6227
23.0289
29.7931
31.9783
28.0678
20.0973
11.845
6.43062
4.75256
5.55919
6.86627
7.60237
8.32186
10.6284
15.7591
23.2637
30.8656
35.5989
35.56
31.164
25.066
20.6964
20.2739
23.6276
28.3825
31.4424
30.8461
26.8578
21.7542
18.5846
19.5673
24.9635
32.9777
40.695
45.4591
46.0876
43.5281
40.4885
40.0567
43.9509
51.2179
58.2542
60.418
54.5097
40.8755
23.6866
9.06558
1.88925
3.0764
9.01642
13.7976
12.9049
6.30749
-1.09729
-2.32513
6.96858
24.9834
43.8772
53.6153
47.7025
27.1834
0.404049
-21.5075
-30.4772
-24.8796
-8.83081
11.6085
32.2758
51.8865
70.2112
85.8082
95.8406
98.3294
94.5479
88.7104
84.4832
80.9022
71.5227
48.7494
10.9608
-33.1162
-66.7864
-74.0838
-49.4673
-1.8557
49.8891
87.2586
101.437
95.7527
80.4962
64.6116
50.4975
35.0718
15.221
-7.30134
-25.6748
-32.3482
-24.5687
-6.66024
12.4569
24.6316
26.6661
20.9377
12.6505
6.13951
2.73521
1.27089
0.152742
-0.924381
-0.47121
3.85639
13.8071
29.311
47.9316
65.293
76.1818
76.4004
64.9927
45.5411
25.5556
13.7203
15.942
32.1998
56.0241
77.1736
86.4208
79.9186
60.7841
37.2498
18.601
10.8732
14.5473
25.1559
35.9758
41.3112
38.7459
29.5244
17.3431
6.43129
-0.182032
-1.48932
1.76276
8.05373
16.2209
25.9133
37.1634
49.533
61.3713
69.8884
72.2565
67.0878
55.325
39.9469
24.7647
13.1015
7.38981
9.56218
21.3807
43.7576
75.1744
110.358
140.853
158.059
157.387
140.936
116.522
93.3625
76.9255
66.3346
56.0501
40.6738
-0
-3e-006
-1e-005
-1.8e-005
-2.7e-005
-3.6e-005
-4.4e-005
-5e-005
-5.8e-005
-7.7e-005
-0.000113
-0.000165
-0.00022
-0.00026
-0.00027
-0.000262
-0.000273
-0.000345
-0.000493
-0.000667
-0.000778
-0.000759
-0.000673
-0.000778
-0.001494
-0.002198
0.006649
0.013672
0.01426
0.005058
-0.01247
-0.037251
-0.067109
-0.086739
-0.0735
-0.033798
-0.012057
-0.053346
-0.188321
-0.390518
-0.545872
-0.532462
-0.321444
-0.060072
-0.024097
-0.420084
-1.12711
-1.56284
-0.879472
1.5907
5.88523
11.2011
16.1082
19.1868
19.9139
19.1401
18.7621
20.7132
25.5453
32.007
37.3923
38.9449
35.6453
28.7266
21.4014
17.1266
18.0484
24.3241
34.8951
48.0416
62.049
75.2234
85.6219
91.1928
90.3622
82.6177
68.601
49.6582
27.4121
3.77381
-18.681
-36.7353
-47.5101
-50.0843
-46.4396
-40.619
-36.0402
-32.6497
-26.2949
-11.3313
14.84
48.5196
80.3655
100.017
101.796
87.7249
65.7858
44.8551
30.0627
21.6819
17.6463
16.9061
20.2569
27.9313
36.6884
39.6994
30.4259
8.07861
-19.8452
-40.182
-41.1923
-19.4038
18.5937
59.7176
91.2914
105.768
101.35
79.6029
43.7653
-1.01908
-45.4459
-75.5445
-76.6532
-40.7384
27.268
109.002
179.65
219.073
220.72
193.262
154.245
120.113
98.6254
87.6617
79.9637
69.6178
56.0003
43.1696
36.0894
36.8544
43.44
51.5091
57.3274
59.6434
59.3825
57.8847
55.3156
50.565
42.6438
32.2818
22.2283
15.9068
15.1637
18.894
23.6536
25.8669
24.1725
20.0426
16.4219
15.3681
16.6089
18.0761
17.9402
16.5337
16.389
20.3847
29.2481
40.4044
49.1445
51.3394
45.9539
35.7322
25.5819
19.8314
20.0004
24.3369
29.1525
30.9623
28.2101
21.9053
14.9206
10.7001
11.7324
18.5415
29.4231
41.0773
49.8969
53.5098
51.781
46.6432
40.907
36.7328
34.6255
33.7117
33.0668
33.0711
35.6439
42.9207
55.0674
68.848
78.2789
77.4215
63.8253
40.6904
16.1322
-0.427467
-2.71701
9.3948
29.9913
50.1969
62.3615
63.2217
54.5974
41.7348
30.4334
24.6124
25.163
30.1802
36.1848
39.7196
38.7585
33.5578
26.5322
21.0525
19.6522
22.5083
27.2128
30.2389
29.3264
25.2584
21.6671
22.7918
30.4099
42.0107
51.5346
52.7201
43.0299
25.9727
10.2453
5.88737
19.3298
49.8759
89.2515
124.764
144.589
143.005
123.054
95.2454
72.812
65.4851
74.7801
93.2819
108.408
109.213
92.6727
65.7158
41.8271
33.7779
46.3834
73.4187
100.604
113.142
103.562
75.3327
40.2423
11.5283
-3.1713
-4.81071
-0.479058
2.53363
1.84494
1.06096
6.20367
20.2244
39.5822
55.4006
58.6898
46.4495
24.5059
5.17767
0.76137
16.4439
46.8082
77.9801
94.38
86.6778
56.7823
17.2656
-14.4049
-23.9727
-6.95601
29.511
70.1122
98.571
104.957
89.8741
63.5071
40.1169
30.9451
38.9854
58.1666
77.2009
85.7102
79.5129
62.3887
43.5623
32.6208
34.8865
49.3337
69.7659
88.1456
98.1538
97.334
87.2847
72.1884
56.9361
45.3865
39.2847
38.1006
39.933
43.0422
47.3722
54.9106
68.2859
88.0401
110.318
127.034
129.317
112.533
80.1553
43.4971
16.8892
10.6513
25.9397
54.3525
82.6578
99.6264
101.012
90.2256
74.9937
62.4856
56.0636
54.9716
56.4207
57.9814
58.8766
59.6322
60.9862
63.0969
65.5088
67.6253
69.107
69.9124
70.0331
69.3708
67.97
66.0713
64.1968
62.8252
62.2292
62.5871
64.2238
67.7187
73.4114
80.4606
86.4805
88.4999
85.1172
78.4651
74.1115
77.9717
91.5215
108.548
116.473
102.78
63.4463
8.16776
-41.6221
-62.3861
-40.7527
18.4814
93.6557
156.704
187.047
180.894
151.013
117.715
96.8101
91.8208
95.0522
95.57
87.9493
75.7783
67.9468
70.8798
82.8173
94.4731
95.6362
82.8291
62.2812
45.9703
43.3609
54.8039
71.0865
79.7352
73.6538
55.7981
37.0087
28.6011
35.094
51.724
68.2003
75.7095
72.1441
62.4176
54.3586
53.4
59.7382
69.1819
76.4108
77.6698
71.6662
58.9907
41.4224
22.2392
6.97847
2.74077
15.2892
44.6564
82.2509
112.621
120.352
99.2569
58.0359
17.6607
0.853646
19.1802
65.1931
115.278
142.76
133.605
94.5567
48.4587
19.6233
18.639
36.4112
51.3975
45.2401
16.0382
-19.5019
-36.2792
-16.5639
38.8946
110.834
171.829
200.009
188.114
144.162
85.5468
31.3571
-3.43694
-10.8416
9.1282
48.3884
92.3917
124.483
132.357
113.952
78.9473
44.1582
24.6469
25.9215
41.8869
59.5763
67.5277
62.4551
50.1891
40.9057
42.2262
54.5579
71.3676
83.5501
84.7951
74.801
58.5632
43.0735
33.8644
33.0412
39.5392
50.6938
63.7691
76.5435
87.1355
93.9485
96.3419
95.6992
95.5254
100.058
111.574
128.222
144.177
152.655
150.089
138.627
124.994
116.102
114.318
115.809
113.262
101.163
80.0199
56.4302
39.077
33.5059
39.2673
51.1181
63.0756
72.0789
78.9061
85.9713
94.3409
102.445
107.119
105.963
99.1521
89.2634
79.6138
72.5325
68.744
67.8994
69.4124
72.7334
76.9476
80.8327
83.6032
85.7454
89.1361
95.78
105.633
115.02
117.385
106.777
82.2821
50.4891
23.698
14.7672
30.3276
66.5181
109.702
142.25
150.718
132.414
97.0815
62.6314
46.7348
57.7331
89.7769
124.894
141.973
128.186
86.7034
36.0084
0.328983
-3.82975
23.0578
63.6824
93.7266
95.2286
65.5003
16.8405
-31.3703
-62.383
-68.0888
-49.2829
-12.1723
35.0011
83.1477
122.518
144.235
143.973
125.56
100.971
85.1391
87.9053
108.273
134.938
153.381
155.044
142.441
126.837
120.12
126.501
139.554
146.362
136.199
107.903
71.4363
42.8208
35.3264
52.1047
84.5395
116.996
135.376
134.51
120.365
105.634
101.735
111.882
129.734
144.102
146.3
135.403
117.79
101.554
90.194
79.9642
63.0476
34.4263
-2.6425
-36.6571
-53.6893
-45.5518
-15.1126
24.6703
57.5124
72.2463
67.9452
53.148
40.1571
38.1584
49.0345
67.6116
85.4576
95.5057
95.1451
86.4452
74.3468
64.0612
58.7841
58.6127
60.7818
61.2644
56.9711
47.5455
36.1976
28.0749
27.4874
35.1183
47.0269
56.3894
57.16
47.4644
30.7238
13.7998
3.35413
2.69213
10.6914
23.1554
35.2894
43.8565
47.8192
47.6111
44.0258
37.6525
29.1415
19.8592
12.1945
9.10351
12.9341
24.0953
40.391
57.3138
69.4896
72.7602
66.0617
52.1215
36.4378
24.8124
20.5622
22.9722
27.9984
30.9535
29.5348
25.2634
22.3885
24.7327
32.8168
43.1331
50.0809
49.5142
41.4229
30.1018
21.9378
21.768
30.2784
43.643
55.6538
