4.02829e-007
4.16523e-009
-7.22876e-007
-1.26391e-006
-8.97606e-007
6.57572e-007
2.56103e-006
2.89835e-006
3.51171e-008
-5.19704e-006
-8.41262e-006
-3.97588e-006
9.20708e-006
2.25088e-005
1.98851e-005
-8.8485e-006
-5.07433e-005
-6.59764e-005
-1.31502e-005
0.000103059
0.000200196
0.000151571
-0.000103413
-0.000439565
-0.00054432
-0.000122294
0.000769955
0.00152834
0.0012481
-0.000548392
-0.00313885
-0.00454056
-0.00266702
0.00270328
0.00858786
0.00974796
0.00231108
-0.0118692
-0.0237791
-0.0215959
0.000162529
0.0325174
0.0526772
0.0371046
-0.0185248
-0.0864631
-0.115221
-0.0613476
0.0716877
0.216324
0.267902
0.151299
-0.110549
-0.378979
-0.464216
-0.250766
0.191417
0.598092
0.642813
0.155405
-0.707269
-1.47591
-1.61104
-0.864233
0.462969
1.56963
1.56215
0.0354361
-2.51012
-4.72025
-4.97432
-2.25363
3.17959
9.71963
15.0897
17.451
16.367
13.0733
9.8601
8.86386
10.9132
15.0695
19.1313
20.8386
19.1193
14.6883
9.67531
6.49609
6.60936
9.85101
14.6992
19.2795
22.4916
24.5738
26.7618
30.2516
35.1125
39.8611
42.0359
39.5196
31.876
20.9038
10.0129
2.69281
0.878276
4.11149
9.96742
15.496
18.8499
20.1615
21.1819
23.9335
29.2177
35.9038
41.4454
43.3204
40.5295
34.2495
27.2516
22.4351
21.3421
23.5038
26.9448
29.4811
30.007
29.0303
28.2149
29.2862
32.9919
38.6992
44.7761
49.4349
51.5106
50.7845
47.8045
43.4534
38.583
33.875
29.8638
26.9491
25.3039
24.7524
24.7982
24.8954
24.8476
25.039
26.242
29.0134
33.0382
36.9443
38.9177
37.9573
35.0864
33.6578
38.2292
52.2525
75.6066
103.34
126.592
135.673
124.118
91.9073
46.2142
-0.859391
-36.7303
-53.0481
-48.5979
-29.1397
-4.36323
16.5334
28.5502
32.2298
32.2126
33.9507
40.3799
50.2685
59.0233
61.4344
54.8401
40.9941
25.5994
15.6913
16.1725
27.2697
44.2457
59.5787
66.5751
62.6416
50.584
37.2707
30.298
34.2897
48.6339
67.7437
83.6818
89.8533
83.995
69.0856
51.8394
39.5829
37.0173
44.3279
57.4103
69.9954
76.6396
75.2287
67.9139
60.1016
57.948
65.4506
82.4155
104.247
123.741
134.166
132.28
119.863
102.977
89.2071
84.1756
89.023
100.117
111.132
116.406
113.789
105.474
96.4287
91.3225
91.7268
95.1465
96.4315
90.7608
76.5252
56.5011
36.6662
23.2969
19.895
25.5391
35.4601
43.4611
44.8851
38.632
27.3029
15.5482
7.58731
5.21197
7.2416
10.5955
12.2982
11.2796
8.97824
8.42135
12.2907
21.0539
32.2448
41.39
44.1926
38.8616
27.3227
14.5709
6.38817
6.54128
14.9012
27.4878
38.4467
42.9483
39.5032
30.5126
20.8195
15.0941
15.4775
20.7108
27.1199
30.805
29.7673
24.8176
18.8579
15.0603
15.0493
18.1243
21.9007
23.9084
23.1511
20.6942
18.9439
20.066
24.4982
30.4606
34.8016
34.7447
29.5693
21.2588
13.6846
10.6895
14.0467
22.3836
31.6883
37.2097
35.8298
27.7161
16.3982
7.19237
4.7188
10.7137
23.1842
37.2916
47.5055
49.9851
44.0866
32.3769
19.2738
9.0596
4.21697
4.77526
8.79671
13.5989
17.0472
18.343
18.0711
17.6424
18.4932
21.4205
26.2842
32.115
37.5135
41.1559
42.2236
40.6161
36.8882
31.9571
26.7236
21.7973
17.4687
13.9152
11.4678
10.6856
12.0934
15.6784
20.4858
24.6959
26.3343
24.3434
19.4019
13.8722
10.6877
11.6598
16.1819
21.2712
23.2186
20.1315
13.9308
10.4081
16.8609
38.1914
73.4007
114.496
148.769
163.713
152.387
116.67
66.7774
17.21
-18.9638
-34.8622
-31.5323
-16.2031
1.74641
14.9652
20.535
19.8304
16.4309
13.5491
12.4087
12.2307
11.4813
9.37907
6.66076
5.18119
6.67331
11.4879
18.1093
23.7634
25.7966
23.0699
16.6078
9.15324
3.86672
2.8534
6.27525
12.4722
18.9705
23.7919
26.346
27.4546
28.5632
30.6615
33.5834
36.1167
36.8549
35.2622
32.2751
30.0197
30.748
35.5717
43.7343
52.8806
60.2298
64.0339
64.5181
63.7663
64.5905
68.9858
77.0025
86.6407
94.812
98.8385
97.6886
92.3225
85.0306
78.1899
73.1411
69.7569
66.8338
62.9689
57.3557
50.0626
41.7395
33.0672
24.3979
15.844
7.70983
0.871333
-3.29726
-3.55348
0.33302
7.01164
13.7618
17.5354
16.3763
10.4745
2.23595
-4.75576
-7.41418
-4.62291
2.24957
10.059
15.4493
16.4654
13.408
8.53339
4.80956
4.40005
7.64379
12.999
17.9073
20.0865
18.5946
14.1784
8.80642
4.68426
3.25828
4.6672
7.84344
11.1469
13.1826
13.4066
12.2639
10.843
10.2627
11.1139
13.2251
15.837
18.054
19.3079
19.5793
19.2798
18.8982
18.6521
18.3663
17.6487
16.2318
14.2396
12.1836
10.6769
10.0505
10.1344
10.3692
10.1933
9.4568
8.5743
8.28514
9.14777
11.0852
13.295
14.6273
14.2433
12.1757
9.44304
7.61177
8.0118
11.0122
15.7406
20.4027
23.055
22.4679
18.6887
13.0605
7.70081
4.65568
5.06822
8.68406
13.8991
18.3633
19.9455
17.6938
12.3771
6.30921
2.44175
3.059
8.65721
17.5785
26.6554
32.628
33.6644
30.211
24.6977
20.2185
18.8674
20.6269
23.4318
24.3896
21.4886
14.8315
6.67723
0.239293
-2.09872
-0.135898
4.01604
7.13085
6.73019
2.53828
-3.34145
-7.67839
-8.10322
-4.6593
0.0766701
2.51978
0.49379
-4.82887
-8.7157
-4.80016
11.6023
40.3918
75.4675
106.259
121.555
114.014
83.3475
36.7179
-13.8133
-55.6469
-79.9137
-83.9328
-71.0939
-48.5964
-24.3213
-4.23702
8.79346
14.7608
15.4023
13.005
9.62054
6.76779
5.40533
5.93627
8.18536
11.4589
14.805
17.4326
19.0741
20.044
20.9201
22.0355
23.1255
23.4055
22.0746
18.942
14.7606
11.012
9.22678
10.2222
13.7017
18.4458
22.9683
26.248
28.1247
29.1819
30.2498
31.8725
34.0528
36.3809
38.4033
39.9662
41.3258
42.9939
45.4513
48.9114
53.2424
58.0399
62.7641
66.8647
69.8804
71.5386
71.8618
71.2247
70.27
69.6378
69.5853
69.689
68.8431
65.6421
59.0238
48.8755
36.2779
23.2278
11.9434
4.07586
0.196845
-0.226299
1.58459
4.31018
6.99146
9.17412
10.7712
11.8297
12.3924
12.5204
12.3883
12.3036
12.5715
13.2794
14.1752
14.7862
14.7527
14.1697
13.6659
14.085
15.9016
18.7303
21.3035
22.046
19.9986
15.562
10.5558
7.44175
8.05338
12.5176
19.0149
24.5904
26.6366
24.2594
18.7661
12.9839
9.76432
10.4903
14.4055
19.1288
22.0525
21.8364
19.159
16.3101
15.8517
19.0947
25.2375
31.659
35.2321
33.9718
28.143
20.2286
13.7514
11.5445
14.3605
20.5365
26.8826
30.3225
29.4198
24.9996
19.5704
15.9042
15.5797
18.2856
22.2194
25.2814
26.3152
25.6531
24.6753
24.7111
26.0155
27.4986
27.4023
24.5105
19.1229
13.146
9.18618
9.14695
13.1494
19.4264
25.2732
28.5188
28.6736
27.0995
26.1113
27.5323
31.5312
36.4006
39.401
38.2035
32.1481
22.6503
12.564
4.85769
1.29742
1.78145
4.59762
7.39123
8.30438
6.72762
3.36705
-0.296835
-2.80725
-3.38445
-2.18751
-0.170958
1.31349
0.993888
-1.87131
-7.10898
-13.3715
-18.1425
-18.1935
-10.5749
6.04293
30.1698
57.0765
79.6222
90.3055
83.9121
59.7295
22.3286
-19.5615
-55.778
-78.0375
-82.5603
-71.0088
-49.4463
-25.8271
-7.07895
3.0863
4.88265
1.58664
-2.36443
-3.42621
-0.305482
5.84531
12.3309
16.3868
16.5017
12.9999
7.68982
2.8413
0.0629149
-0.342449
0.745641
2.01466
2.61459
2.6593
3.04747
4.73859
7.96122
11.8841
15.0031
16.0484
14.8663
12.705
11.6645
13.5733
18.9242
26.5054
33.98
39.1167
40.9863
40.4443
39.6346
40.8086
45.1411
52.1963
60.2928
67.4849
72.5494
75.4214
76.9113
77.9872
79.1379
80.2185
80.811
80.7732
80.5343
80.8865
82.3859
84.7632
86.7673
86.6097
82.8053
74.9538
64.0219
51.9607
40.8602
32.0915
25.8769
21.4838
17.8917
14.5303
11.6654
10.217
11.1159
14.5719
19.6826
24.6398
27.4628
26.899
23.0225
17.2115
11.5084
7.69536
6.56034
7.71164
9.98547
12.1645
13.5762
14.2507
14.6115
14.9678
15.1816
14.7446
13.2068
10.6441
7.81125
5.82143
5.51306
6.89282
9.03576
10.5645
10.4732
8.82208
6.86311
6.45734
9.04899
14.741
22.0013
28.2196
30.8848
28.8114
22.7893
15.3035
9.43307
7.44963
9.79377
14.9224
20.0966
22.7209
21.5859
17.4177
12.4853
9.46793
10.1374
14.4882
20.7242
26.0969
28.1878
26.0206
20.4841
13.8835
8.85723
7.19102
9.0917
13.238
17.5342
20.1554
20.3628
18.7178
16.6577
15.7068
16.7433
19.6535
23.4693
26.8432
28.6032
28.1662
25.7152
22.1516
18.8724
17.4057
18.9442
23.8815
31.5352
40.2545
47.9751
53.0444
54.9272
54.393
53.0253
52.2866
52.6703
53.4648
53.3052
51.1881
47.2961
43.0532
40.3038
40.0956
41.8676
43.6541
43.2999
39.9953
35.1357
31.8209
33.1028
39.9129
49.9395
58.3322
60.1345
53.3142
40.7641
29.9911
30.3044
48.5853
85.546
134.302
182.109
214.697
221.461
199.37
154.011
97.4236
43.7217
4.31194
-15.4413
-17.0077
-6.95393
6.32466
15.9459
18.6811
15.2815
9.1837
4.39947
3.58626
7.0662
13.0496
18.7765
21.9349
21.6788
18.8272
15.2496
12.8244
12.5201
14.0421
16.1616
17.4917
17.2669
15.7217
13.9137
13.1441
14.3195
17.5849
22.3621
27.6894
32.6246
36.5028
38.9941
40.0514
39.8837
38.9984
38.2322
38.6299
41.1126
46.0462
52.9591
60.6365
67.629
72.9454
76.5472
79.331
82.5731
87.1389
92.931
98.9213
103.763
106.606
107.59
107.689
107.97
108.749
109.19
107.678
102.78
94.2391
83.3769
72.603
64.2506
59.3682
57.1447
55.305
51.2791
43.5357
32.3938
19.9232
9.02221
2.1574
0.369363
2.96041
7.91937
12.8066
15.6702
15.6285
12.9579
8.75449
4.38173
0.949736
-0.997695
-1.52482
-1.12092
-0.408748
0.123414
0.267832
0.089943
-0.19475
-0.377823
-0.367143
-0.205476
-0.0107306
0.110413
0.119827
0.0496365
-0.0383723
-0.0982855
-0.118492
-0.107949
-0.0716726
-0.00273675
0.100252
0.208021
0.25808
0.190188
0.00184101
-0.220507
-0.333286
-0.228542
0.0665181
0.360743
0.387098
-0.0229347
-0.783937
-1.54115
-1.84628
-1.45065
-0.539156
0.273661
0.242751
-1.04107
-3.28036
-5.44415
-6.15501
-4.31412
0.375431
7.29161
15.2582
23.1746
30.5223
37.4283
44.2451
50.9279
56.6482
59.9615
59.5099
54.8858
47.1363
38.5497
31.7583
28.5858
29.237
32.2659
35.3563
36.5221
35.1213
32.1763
29.8459
30.3167
34.6497
42.1325
50.4416
56.5564
58.0413
54.1589
46.3437
37.8176
32.46
33.3488
41.5322
55.5339
71.8211
86.0817
94.8083
96.5341
92.194
84.4689
76.4338
70.1686
66.0026
62.7439
58.7274
53.0759
46.4401
40.7645
38.1735
39.597
43.9594
48.4933
50.1266
47.2504
40.8697
34.3818
31.9318
36.1071
46.2132
58.1991
66.5144
67.1383
60.2711
51.1607
48.3384
59.8051
88.8315
131.406
176.739
210.873
221.954
204.903
163.419
108.457
53.9132
11.4898
-13.0354
-20.6843
-17.2864
-9.91223
-3.60589
0.11456
2.6099
6.10111
11.6618
18.3899
24.0869
26.8355
26.372
24.3562
23.3723
25.2912
30.0081
35.3262
38.0654
35.7599
27.9921
16.652
5.04557
-3.60242
-7.43131
-6.40884
-1.8868
4.34573
10.9121
17.178
23.0266
28.3866
32.9109
36.0395
37.3792
37.1157
36.148
35.8141
37.3243
41.1994
47.0162
53.6101
59.6402
64.2342
67.3745
69.8173
72.5793
76.2716
80.6709
84.8048
87.5438
88.374
87.8699
87.5164
88.901
92.7002
98.0713
102.873
104.672
101.992
95.0972
85.8165
76.5184
68.8386
62.935
57.7064
51.7976
44.7108
37.2796
31.1867
27.8427
27.3782
28.441
28.969
27.4696
23.9867
20.1182
18.0363
19.0952
22.8798
27.2929
29.6533
28.1779
22.9939
16.1076
10.354
7.91687
9.22768
12.8161
16.1619
17.0722
14.859
10.7235
7.16918
6.74916
10.7654
18.5468
27.6459
34.859
37.5871
34.9061
27.8604
18.8807
10.65
4.9976
2.35098
1.94971
2.59995
3.47109
4.4613
5.96839
8.30154
11.2029
13.8618
15.4504
15.8156
15.8006
16.8696
20.1617
25.5284
31.2138
34.513
33.1618
26.7092
17.0421
7.65173
1.94487
1.4944
5.223
10.0304
12.5588
11.1161
6.64606
2.15894
0.922814
4.45598
11.5086
18.6688
22.2833
20.5969
14.8567
8.70573
6.17663
9.4102
17.3969
26.4557
32.1794
31.7544
25.3836
16.0844
8.05744
4.58932
6.62457
12.6734
19.9263
25.8134
29.116
30.1279
29.9789
29.6833
29.5217
29.0475
27.5782
24.7712
20.9174
16.8279
13.4513
11.4674
11.0476
11.8361
13.1133
14.0812
14.2151
13.586
12.9823
13.6483
16.6031
21.797
27.6321
31.375
30.5954
25.1041
18.3189
16.9654
28.7034
58.3933
104.696
158.897
207.01
234.657
232.735
201.27
149.575
92.5283
44.6558
14.7633
3.50495
4.76643
9.82603
11.9816
9.31958
4.4924
2.05256
5.12389
13.3472
23.1161
29.7257
30.0147
23.9468
14.3514
5.18464
-0.513507
-1.76728
0.583476
5.09591
10.9103
18.0611
26.767
36.3279
44.5699
48.4317
45.5065
35.6483
21.5998
8.1091
-0.123045
-0.61875
5.74024
15.2235
23.1329
26.0624
23.3941
17.3501
11.7023
9.89665
13.5491
21.964
32.7406
43.01
50.635
54.856
56.2319
56.0813
55.7984
56.3672
58.2091
61.2889
65.3032
69.7934
74.1394
77.5164
78.9572
77.6137
73.1744
66.2433
58.4149
51.8644
48.5047
49.0368
52.3752
55.8518
56.2538
51.3127
40.9445
27.5683
15.2301
7.86218
7.48737
13.2655
21.8881
29.1464
31.8891
29.386
23.4353
17.2265
13.6183
13.7662
16.7862
20.535
22.9715
23.2823
22.1556
21.1191
21.4141
23.1251
25.1073
25.7615
24.2017
21.1189
18.8001
20.2122
27.5561
40.9831
58.1095
74.6004
85.6266
87.6199
79.6329
63.7725
44.5372
27.3052
16.5379
14.3706
20.1117
30.8166
42.6618
52.5027
58.9156
62.2705
63.8623
64.6252
64.2025
60.9705
53.0872
40.0109
23.5739
7.84263
-2.37996
-3.77627
3.6775
16.3485
28.3681
34.236
31.3444
21.1444
8.35916
-1.3546
-4.10224
0.538439
9.57917
18.3045
22.6226
20.8797
14.3227
6.15972
-0.136797
-2.36743
-0.302419
4.60927
10.1644
14.4012
16.2323
15.5851
13.1886
10.2231
7.97315
7.50156
9.33027
13.1817
17.9275
21.8849
23.4543
21.8708
17.7044
12.7972
9.58991
10.1144
15.131
23.8363
34.2753
44.2174
52.0296
57.1071
59.7116
60.4146
59.565
57.1432
53.0828
47.8007
42.5003
38.9208
38.5498
41.6957
47.0007
51.8098
53.3699
50.3226
43.687
36.6811
33.2878
36.163
44.9559
56.0493
64.1061
64.8768
57.9488
47.9375
43.213
52.4015
80.0747
123.631
173.025
213.797
232.329
221.164
182.064
125.455
66.5068
19.5333
-6.87802
-12.085
-2.30349
12.9459
25.049
29.3178
25.7686
17.7754
9.64109
4.41235
2.87138
3.87846
5.55525
6.50941
6.47183
6.16262
6.6369
8.56694
11.8446
15.6425
18.8214
20.4399
20.1394
18.2806
15.8254
14.031
14.0471
16.5229
21.3299
27.5074
33.4967
37.636
38.7684
36.7235
32.4405
27.6266
24.0631
22.8614
24.0402
26.6592
29.4681
31.7313
33.7523
36.7493
42.0853
50.2526
60.2214
69.6203
75.7691
77.0593
73.8977
68.5974
64.1697
62.6398
63.8608
65.5909
64.8834
60.0295
51.8705
43.5832
38.9116
39.7887
44.7689
49.326
48.0387
37.5542
18.6801
-3.63443
-22.5147
-32.4193
-31.6905
-23.0555
-11.9034
-3.40521
-0.118759
-1.32602
-4.25413
-6.23091
-6.37406
-5.84291
-6.66522
-10.0424
-15.2894
-20.071
-21.7294
-18.8276
-11.9695
-3.47831
3.77216
7.63568
7.41565
3.82022
-1.5852
-6.98618
-10.7209
-11.5165
-8.75177
-2.80122
4.76377
11.4747
14.9153
13.9983
9.85123
5.61295
4.98598
10.164
20.2764
31.3601
38.0803
36.4102
25.8448
9.90031
-5.44277
-14.5542
-14.7351
-7.22647
3.79077
13.5284
18.9093
19.6569
17.7457
15.7671
15.3062
16.2693
17.4
17.463
16.2164
14.5394
13.7039
14.3659
16.0103
17.2445
16.7424
14.1938
10.6081
7.74956
7.05349
8.72158
11.5854
13.8414
14.2043
12.7537
10.9313
10.6674
13.1495
17.9706
23.1751
26.1995
25.1947
20.0161
12.3669
5.05143
0.75371
0.952192
5.45004
12.6445
20.3052
26.4542
29.99
30.8896
30.0274
28.7589
28.4326
29.9546
33.4963
38.4194
43.4644
47.1774
48.4435
46.9138
43.1205
38.2009
33.3463
29.257
25.9037
22.7536
19.3562
15.9505
13.6869
14.2166
18.7401
26.9565
36.5312
43.5568
44.0528
35.9914
20.9405
4.40082
-5.62154
-1.49991
20.7204
59.0124
105.158
146.947
172.083
172.349
146.443
100.438
45.7398
-4.60041
-39.8565
-54.5144
-49.253
-29.9194
-5.06257
17.0346
30.8451
34.8773
31.4434
25.1245
20.5721
20.5275
24.8452
30.8933
35.0871
34.7876
29.6212
21.5823
13.9195
9.45288
9.24542
12.3171
16.4638
19.6151
20.8986
20.8198
20.5572
20.9142
21.6524
21.633
19.65
15.3883
9.87641
5.13458
3.22473
5.25599
10.8946
18.5995
26.3872
32.6754
36.7949
39.0104
40.1765
41.293
43.171
46.2752
50.6845
56.1032
61.915
67.3268
71.6183
74.4216
75.877
76.5398
77.0443
77.6966
78.2368
77.9313
75.9604
71.8763
65.8604
58.6298
51.0655
43.807
37.0677
30.7665
24.848
19.5339
15.2992
12.5671
11.3343
11.0171
10.6883
9.61951
7.816
6.18536
6.16485
8.94807
14.7135
22.3019
29.5733
34.3067
35.1972
32.4294
27.5239
22.546
19.1168
17.7715
17.9972
18.8821
19.9294
21.4922
24.517
29.7312
36.801
44.0606
49.1051
50.0015
46.4453
40.1372
34.0691
31.0399
32.2162
36.5665
41.5144
44.4357
44.1182
41.3265
38.1601
36.6387
37.4099
39.3799
40.4695
38.9831
34.7062
29.0435
24.1374
21.5539
21.3756
22.2571
22.3692
20.6088
17.3113
14.0452
12.6468
14.1037
17.9463
22.4697
25.6145
25.9833
23.451
19.0994
14.5883
11.3408
9.96266
10.1436
11.026
11.8017
12.2068
12.6493
13.8983
16.4973
20.2384
24.0428
26.3969
26.1773
23.4118
19.4849
16.5496
16.3755
19.2506
23.619
26.7662
26.2602
21.366
13.6052
6.09373
1.99804
2.97414
8.46066
16.1768
23.4543
28.5652
31.2791
32.4319
32.9319
32.9561
31.8871
28.9822
24.2343
18.7508
14.3155
12.3769
13.1225
15.2745
16.7914
16.0854
13.0294
9.14358
6.82967
8.0586
13.2088
20.647
27.2517
29.644
25.6234
15.2878
1.47117
-10.6665
-14.8794
-5.7012
19.484
58.8083
105.446
148.811
177.384
182.395
161.048
117.898
63.6488
11.6524
-26.5705
-44.9872
-44.4397
-31.3209
-14.3094
-0.729765
5.871
6.07125
3.05671
0.299288
-0.283123
1.14174
3.09964
4.18845
4.11922
3.81757
4.63201
7.25219
11.0827
14.4892
15.7619
14.1828
10.5214
6.64074
4.44281
4.78669
7.02268
9.41256
10.1791
8.5696
5.33398
2.37852
1.82808
5.02945
11.9984
21.5114
31.6806
40.6547
47.1323
50.5829
51.2588
50.1172
48.6779
48.7322
51.8328
58.6569
68.5275
79.4277
88.6594
93.9472
94.4801
91.3339
86.9929
84.1607
84.447
87.6013
91.6851
94.0723
92.7418
87.1988
78.594
69.0537
60.6333
54.4488
50.3846
47.4251
44.3402
40.3195
35.251
29.5856
23.9547
18.8075
14.2635
10.2095
6.52314
3.24625
0.599352
-1.15766
-1.91207
-1.80646
-1.20219
-0.525345
-0.0894944
0.00696187
-0.135619
-0.325819
-0.40707
-0.332127
-0.158761
0.0111428
0.100581
0.0936458
0.0277137
-0.041085
-0.0716079
-0.0526977
0.00104026
0.062
0.101138
0.0964734
0.0416272
-0.0456785
-0.122477
-0.135978
-0.0553657
0.0963438
0.236322
0.258626
0.102789
-0.186197
-0.455283
-0.519906
-0.288815
0.139496
0.487988
0.444289
-0.127779
-1.03822
-1.80371
-1.88857
-1.04193
0.473126
1.93755
2.54822
1.92951
0.484207
-0.670327
-0.215699
2.64595
7.66821
13.5706
18.6293
21.5435
22.0787
21.09
19.8912
19.3492
19.2834
18.5892
16.0577
11.3896
5.72492
1.25835
0.0708678
2.84199
8.26005
13.5888
16.1606
14.9593
11.3253
8.27555
8.74189
13.7155
21.4053
27.9813
29.5664
24.3945
13.917
2.2097
-6.01696
-7.72491
-2.93162
5.52938
13.6557
18.3631
18.8738
16.738
14.6346
14.7483
17.6758
22.401
27.2092
30.8791
33.3968
35.7986
39.3056
44.3302
49.9813
54.37
55.5435
52.5264
45.9084
37.6798
30.4166
26.2232
25.9185
28.7836
32.908
35.9253
35.8305
31.6249
23.6532
13.5966
4.11651
-1.84206
-2.01532
4.17162
14.9564
26.4072
33.658
32.9947
24.0204
10.8164
1.20557
3.97769
24.9565
63.574
111.684
155.537
180.437
176.293
141.707
84.7869
20.2818
-35.7174
-71.2557
-81.9446
-71.1867
-47.5352
-20.7087
1.8864
16.8467
24.4527
27.0628
27.3226
27.0413
26.9729
27.1926
27.5599
27.9328
28.1309
27.8718
26.8806
25.1689
23.2675
22.1695
22.9072
25.948
30.7519
35.7909
39.094
39.0963
35.4022
29.0986
22.4585
18.1429
18.2136
23.3401
32.5053
43.3318
52.9289
58.9623
60.547
58.5997
55.4714
53.9738
56.181
62.5224
71.5796
80.6964
87.1405
89.2936
87.3386
83.151
79.4722
78.7616
82.2311
89.4484
98.6128
107.32
113.456
115.869
114.585
110.57
105.195
99.662
94.6244
90.1065
85.6958
80.8468
75.1226
68.2809
60.2341
51.0114
40.8341
30.2991
20.5259
13.0638
9.46011
10.6035
16.1597
24.4539
32.9623
39.2507
41.9127
41.0244
37.8707
34.1094
30.8585
28.2371
25.6019
22.2883
18.3419
14.7312
12.8653
13.7026
17.0262
21.3933
24.8533
26.0401
24.9725
23.0401
22.1331
23.4144
26.4835
29.4878
30.1817
27.3541
21.7806
16.0899
13.5333
16.2845
24.1851
34.6414
43.7595
48.1448
46.4404
39.8339
31.3202
24.1606
20.3625
19.938
21.2357
22.0618
20.9212
17.7206
13.6327
10.3092
8.96353
9.84553
12.3381
15.5024
18.6466
21.5315
24.1204
26.1274
26.7873
25.1319
20.6995
14.2425
7.89674
4.52346
6.42132
14.0405
25.4355
36.866
44.3538
45.4614
40.3939
31.8544
23.7256
19.2624
19.7122
24.0192
29.6654
34.1148
36.0559
35.8326
34.942
34.9926
36.7535
39.7967
42.8474
44.5549
44.2048
41.9909
38.7614
35.4648
32.6675
30.4318
28.5985
27.2555
27.047
29.0534
34.2177
42.5751
52.7183
61.8769
66.7292
64.6873
55.1101
39.8442
22.7468
8.29865
-0.133107
-1.60929
2.11252
7.50934
11.0098
10.6887
7.11553
2.92522
1.2951
4.0718
10.5117
17.3584
20.364
16.6371
6.70401
-4.83532
-10.6335
-3.58922
19.6645
56.3561
97.5323
130.709
144.344
132.339
96.653
46.8102
-3.54222
-41.606
-59.8328
-57.976
-42.1255
-21.4237
-4.11118
5.33957
6.96135
3.97411
0.413068
-0.985389
0.295788
2.99355
5.31707
6.16603
5.66431
4.8606
4.93442
6.4586
9.13918
12.1101
14.527
16.0644
17.0252
18.0311
19.5179
21.3673
22.9185
23.375
22.3823
20.4302
18.8026
19.0281
22.0656
27.6411
34.1274
39.1158
40.4768
37.424
31.0396
23.9469
19.2259
19.0595
23.7603
31.6609
39.9307
45.9233
48.3936
48.0027
46.8892
47.5503
51.5936
58.9473
67.8562
75.6061
79.6031
78.3317
71.8303
61.5736
49.8804
39.1111
30.9322
25.869
23.2689
21.6839
19.5595
15.9921
11.2437
6.74779
4.52042
6.17289
11.9639
20.3841
28.5626
33.3947
32.8958
27.1278
18.2161
9.42126
3.71369
2.55083
5.44169
10.4535
15.3214
18.5341
19.8446
20.0232
20.1119
20.6897
21.5835
22.1412
21.8192
20.6648
19.3723
18.8919
19.859
22.2151
25.2513
28.0263
29.8711
30.6549
30.6565
30.1608
29.0912
26.9753
23.323
18.2031
12.6291
8.4211
7.49704
10.8979
18.0699
26.8579
34.3182
38.0134
37.1482
32.9386
27.9768
24.8912
24.9909
27.6179
30.5552
31.2699
28.3093
22.0937
14.6961
8.77155
6.25997
7.57301
11.6531
16.7635
21.4654
25.1883
28.1259
30.6448
32.7046
33.7345
33.0651
30.595
27.1782
24.3745
23.6257
25.3289
28.408
30.7341
30.2472
26.1864
19.7116
13.4958
10.4292
12.0924
17.8256
24.938
29.9982
30.5599
26.4221
19.7557
14.0283
12.2981
15.7742
23.3708
32.4187
40.0608
44.5182
45.5603
44.0407
40.945
36.6619
30.9798
23.7693
15.7919
8.94204
5.58251
7.26804
13.64
22.2788
29.7626
33.4155
32.7187
29.4665
26.4691
25.529
25.9755
24.8405
18.8326
7.12669
-6.70817
-15.0769
-9.33065
15.8132
58.551
109.047
152.138
172.823
162.213
121.306
60.8528
-2.64664
-53.022
-79.9784
-81.8726
-64.8875
-39.4036
-15.4611
0.693736
7.80043
8.52486
7.12385
7.12314
9.96912
14.9433
20.0172
23.0381
22.6975
18.9917
13.1493
7.15673
3.07666
2.35887
5.34417
11.1272
17.8511
23.3535
25.9317
24.9276
20.9025
15.3523
10.1108
6.70413
5.90817
7.64086
11.1749
15.5417
19.952
24.0773
28.0895
32.4468
37.5125
43.1905
48.7878
53.2433
55.6806
56.0329
55.3717
55.6555
58.8896
66.0436
76.2869
87.0345
94.9254
97.3561
93.8345
86.4209
78.9268
75.163
77.0502
83.5354
90.9068
94.4139
90.4408
78.1734
59.9453
40.1068
23.0172
11.1979
4.5757
1.13616
-1.46196
-4.27534
-6.39672
-5.57935
0.223837
11.3237
25.6713
39.5285
49.077
52.0935
48.814
41.5922
33.6292
27.5132
24.3218
23.6324
24.2444
25.0622
25.6083
25.9583
26.2869
26.4304
25.7991
23.702
19.8641
14.8002
9.80614
6.55402
6.48238
10.2552
17.4997
26.8922
36.5284
44.4416
49.1221
49.9127
47.183
42.2229
36.8488
32.8066
31.1475
31.8078
33.5928
34.6288
33.1566
28.3606
20.8709
12.6718
6.39568
4.26407
7.12706
14.0416
22.6032
29.9017
33.675
33.1424
29.1601
23.6776
18.8009
15.9288
15.3346
16.3018
17.6421
18.2818
17.6509
15.7819
13.1895
10.6606
9.03594
8.98496
10.7577
13.9645
17.5192
19.8841
19.6263
16.091
9.8564
2.67851
-3.12834
-5.61937
-4.00979
1.06028
7.89214
14.4943
19.3294
21.6976
21.678
19.8264
16.9181
13.8917
11.9049
12.2581
16.0144
23.4072
33.3845
43.6869
51.5998
55.1081
53.8593
49.3632
44.2388
40.8661
40.1761
41.2671
42.0791
40.741
36.8023
31.6245
27.6964
27.2731
31.1249
38.1023
45.7234
51.3901
53.5104
51.9366
47.6191
41.8958
36.0269
31.323
29.6679
33.7978
46.706
70.0636
102.304
137.525
166.23
178.115
166.01
129.263
74.8937
15.7196
-33.9461
-63.263
-68.3992
-53.2013
-26.9002
-0.0689294
19.2994
28.0046
27.5375
22.1809
16.5217
13.5776
14.1633
17.3772
21.6027
25.3737
27.7644
28.3626
27.1009
24.1842
20.1452
15.8829
12.5157
11.0217
11.8195
14.5289
18.0801
21.1503
22.7269
22.5239
21.0625
19.3985
18.6484
19.5419
22.1895
26.131
30.6043
34.8897
38.5796
41.675
44.4886
47.4157
50.6836
54.2011
57.5915
60.4087
62.4377
63.9118
65.4945
67.9779
71.8215
76.777
81.8521
85.7038
87.3045
86.5242
84.2635
81.9921
80.8885
81.048
81.2373
79.3995
73.6896
63.4986
49.9013
35.2735
22.2835
12.8072
7.33609
5.14311
5.02322
6.1167
8.31627
12.0519
17.6426
24.6642
31.76
37.0503
38.9379
36.8821
31.7188
25.3447
19.9038
16.8677
16.449
17.6304
18.7908
18.6207
16.8613
14.4804
13.1669
14.3829
18.4629
24.259
29.562
32.1184
30.726
25.832
19.3193
13.6128
10.6018
10.9455
14.0661
18.7086
23.6376
28.0323
31.4291
33.4219
33.5044
31.3014
27.0707
22.0618
18.3049
17.7507
21.1546
27.3891
33.7249
37.0907
35.7057
30.1651
23.2813
18.6531
18.6745
23.0715
28.8264
31.62
28.0924
17.7527
3.52084
-9.42022
-15.9218
-13.2004
-2.08602
13.3729
27.7065
36.3388
37.3585
32.0167
23.8624
17.0386
14.5678
17.3428
24.1291
32.3977
39.4908
43.5873
44.1384
41.7494
37.711
33.4572
30.1487
28.45
28.4747
29.857
31.9348
34.0373
35.818
37.4942
39.8212
43.7161
49.6347
57.0049
64.0753
68.3868
67.7449
61.2556
49.8843
36.2056
23.4389
14.2651
10.0325
10.6999
15.3836
22.9936
32.436
42.2607
50.1844
53.1979
48.7111
36.4542
20.0914
7.25022
7.25166
27.0437
67.0631
119.222
168.518
198.139
196.108
160.56
101.116
35.5212
-17.1046
-43.4762
-40.6834
-16.2072
16.3178
43.4113
57.1435
57.3009
49.7276
42.1271
39.7222
42.9854
48.3634
51.2443
49.2644
44.0152
40.2395
43.0948
55.1384
74.7654
96.913
115.503
126.156
127.708
121.91
111.854
100.343
89.2007
79.6938
73.3129
71.9265
76.883
87.6127
100.919
111.909
116.432
113.726
107.465
104.152
109.385
124.03
142.725
156.042
155.508
138.847
112.323
88.4738
80.0289
93.107
123.433
157.871
180.735
181.687
161.028
129.526
102.801
93.22
103.566
125.759
145.154
148.024
128.263
89.9786
44.9577
6.71627
-15.6095
-20.5261
-13.4062
-2.68289
4.60614
5.61373
1.78128
-3.20667
-6.05819
-5.57893
-2.77289
0.303665
1.97705
1.79765
0.463536
-0.889847
-1.45589
-1.11877
-0.310838
0.407733
0.715057
0.632827
0.384599
0.17454
0.059774
-0.0213278
-0.130261
-0.239262
-0.249637
-0.0991117
0.136011
0.240402
-0.0141807
-0.688437
-1.5691
-2.23719
-2.3081
-1.71912
-0.877712
-0.532146
-1.37243
-3.54043
-6.31963
-8.21879
-7.47196
-2.74712
6.27933
18.7748
33.101
47.4631
60.4982
71.499
80.2103
86.4234
89.722
89.6282
86.0907
79.9637
73.0498
67.5113
64.874
65.193
66.9585
67.9374
66.5577
63.0183
59.352
58.2294
61.081
66.6561
71.0485
69.4691
59.0046
40.8807
20.8129
6.94202
6.15754
20.6035
46.2348
74.3378
95.4086
103.505
98.8615
87.4137
77.4712
75.2891
81.8659
92.6356
100.151
98.249
85.4084
65.5166
45.7323
32.753
29.6281
34.8357
43.9367
52.585
58.9324
63.9653
69.7245
76.7801
82.8582
83.7789
76.3258
61.2929
44.6462
35.7326
43.1843
70.5664
114.054
163.361
205.443
229.144
228.709
204.901
163.814
114.416
66.0405
26.5241
1.03512
-8.63617
-4.35245
8.83353
24.1871
35.6568
40.2154
38.9659
36.2376
36.9566
43.6456
54.7597
65.3785
69.9161
65.2936
52.7254
37.1002
24.3797
18.5901
20.1358
26.2635
33.1539
38.1929
41.025
42.9183
45.1167
47.455
48.218
45.2927
37.7595
26.7996
15.307
6.48689
2.37821
3.21232
7.87747
14.9763
23.6023
33.2632
43.1125
51.2701
55.0449
52.2652
43.0547
30.8764
21.8964
22.6214
36.8237
63.3338
95.9782
125.888
145.176
150.244
143.128
130.265
119.306
115.523
119.487
127.035
131.442
126.702
110.421
85.0311
56.8694
33.5877
21.0525
21.0492
30.7108
43.843
53.5298
54.913
47.018
32.9362
18.377
9.26256
9.38703
19.0722
35.2775
52.988
67.1872
74.5446
74.1652
67.2457
56.0069
42.5741
28.4063
14.4873
1.99408
-7.16128
-10.471
-5.79182
7.28766
26.4613
46.829
62.351
68.1442
62.5994
48.2675
30.9863
17.5535
12.9652
18.4667
31.2694
45.9909
57.0808
61.0949
57.85
50.0964
42.0444
37.5321
38.6371
45.1893
55.1695
65.6316
73.7093
77.3988
76.0142
70.3315
62.4414
55.2879
51.8912
54.3894
63.214
76.796
92.0627
105.638
115.266
120.779
124.054
127.901
134.37
143.344
152.205
156.853
153.646
141.307
121.78
99.5027
79.3765
64.4365
54.4509
46.2802
35.9222
21.2286
3.8031
-11.114
-16.9687
-9.40052
10.8783
37.5108
60.8177
72.0709
67.6156
50.6564
29.6533
14.0804
9.79279
16.5379
28.9986
40.7343
48.6496
55.2063
66.8247
89.1756
122.039
156.936
179.401
175.245
137.819
72.5132
-4.09205
-70.3025
-107.9
-109.237
-79.6327
-34.2002
9.09147
36.7227
44.0704
35.4565
20.4705
8.81209
6.1768
12.7525
24.403
35.4103
41.2369
40.1603
33.4136
24.1665
16.0174
11.6267
11.9004
15.8927
21.3965
26.0128
28.3072
28.5577
28.6855
31.2958
38.2222
49.3119
62.1587
73.0423
78.666
77.7967
71.9063
64.4371
59.0826
58.0302
61.1259
66.3685
71.3634
74.8243
77.2283
80.2891
85.6464
93.6368
102.924
111.202
116.505
118.3
117.681
116.613
116.737
118.528
121.324
124.131
126.55
129.097
132.579
136.907
140.21
139.068
130.014
111.635
86.0348
58.6377
36.1567
23.6534
22.2247
28.6244
37.0922
42.4133
42.5037
39.0716
36.0267
36.6499
41.2798
46.9716
49.3792
45.7339
37.0727
28.2584
25.6276
33.5231
51.6761
74.9615
95.7114
107.329
107.23
97.5768
83.5463
70.2781
60.3047
52.8677
45.3238
35.5914
24.0296
13.576
8.099
10.0317
18.781
30.8955
41.8765
48.5145
50.3413
49.3752
48.4152
49.0389
50.6001
50.8451
47.7005
41.0144
33.0593
27.4082
26.861
31.7397
39.6647
46.9955
51.0554
51.7451
51.522
53.745
60.4108
70.6904
81.1715
87.6598
87.4541
80.7668
70.5307
60.8161
54.8521
53.7515
56.4787
60.812
64.5512
66.279
65.4668
62.2029
56.9697
50.6447
44.5381
40.1356
38.4561
39.3537
41.3225
42.1429
40.1317
35.2325
29.1473
24.2853
22.1488
22.307
22.8598
22.3383
21.8889
26.1116
41.4963
72.7954
119.094
171.883
216.664
237.877
225.118
177.811
106.092
27.4387
-39.437
-80.7488
-91.3219
-74.6416
-39.8491
2.47083
43.6642
78.3303
103.685
118.101
120.209
109.329
86.9342
57.9476
30.5586
13.9655
14.7183
33.393
63.5222
93.7741
112.714
113.977
99.2081
77.1323
59.0732
53.2208
60.6875
75.4718
88.2914
92.064
85.8982
75.3458
68.8666
72.6586
86.9166
105.67
120.212
124.035
116.413
102.677
91.2046
89.0086
98.4181
116.503
137.188
154.522
165.171
168.963
167.655
163.135
156.397
147.858
138.547
131.015
128.995
135.677
151.453
172.504
191.316
199.25
190.197
163.637
125.581
86.7575
58.6294
48.9068
58.4707
81.0808
106.02
122.537
124.16
111.021
89.255
67.8713
54.5985
52.6387
59.7517
69.9564
76.8886
77.098
71.6557
65.321
63.7545
70.2632
83.8104
99.3889
110.622
113.257
107.663
98.9132
94.2855
99.4323
115.291
137.463
158.481
171.755
175.02
171.338
167.134
168.405
177.327
191.171
204.046
210.306
207.56
197.633
185.153
174.936
169.845
170.259
175.007
182.646
191.936
201.252
207.751
207.525
197.297
176.941
151.117
128.487
118.311
125.933
149.641
180.873
207.931
221.368
218.194
202.679
183.481
168.816
162.421
162.391
163.212
159.512
149.23
134.509
120.125
110.685
108.364
112.342
119.924
128.297
135.694
141.392
144.874
145.09
140.589
130.539
115.909
99.8154
86.5391
79.5654
79.7524
84.7715
90.3163
92.567
90.6184
87.4988
89.0585
101.073
125.84
159.91
194.179
216.617
216.714
189.888
139.938
78.2836
20.1001
-21.1629
-38.5062
-33.2445
-13.2369
11.463
33.1687
48.9514
59.8574
67.9445
73.4781
74.4318
68.7209
57.4947
46.7641
45.5219
60.8715
92.9906
133.366
168.017
184.359
177.845
154.407
127.072
108.738
105.416
113.959
125.395
131.438
129.817
125.04
124.343
131.784
144.623
154.511
152.759
136.264
110.227
85.8949
74.6985
82.3027
105.993
136.638
163.722
180.378
185.692
183.533
179.189
176.164
174.952
174.083
172.334
170.401
170.878
176.579
188.24
203.058
215.07
217.417
205.548
179.828
146.179
114.186
93.3289
88.9493
99.8953
119.048
136.567
144.289
139.092
123.605
104.125
87.1237
76.3853
72.247
72.9527
76.7927
83.3477
92.9939
105.245
117.478
125.386
125.235
116.544
103.249
92.2082
89.6233
97.4632
112.173
126.657
134.466
133.637
127.752
123.441
125.838
134.843
144.645
147.008
136.418
113.998
87.6687
68.2867
63.853
75.1048
95.0301
112.604
118.636
110.466
92.9712
75.5066
66.6448
69.7048
81.408
94.1204
100.141
95.5359
81.5495
63.1595
45.9799
33.4293
25.6461
20.4137
15.1808
8.79545
1.99033
-3.43119
-5.97225
-5.43458
-2.97599
-0.346779
1.1026
1.01744
-0.0337795
-1.1203
-1.56571
-1.25144
-0.514657
0.182898
0.546553
0.537242
0.278642
-0.0774566
-0.408193
-0.593056
-0.492886
-0.0162332
0.747571
1.45402
1.61672
0.910638
-0.509405
-1.93625
-2.43981
-1.48705
0.523503
2.24379
2.05124
-0.866263
-5.67949
-10.0106
-11.1491
-7.85887
-1.69153
3.227
2.2214
-6.91661
-21.5531
-34.0622
-34.461
-14.8613
26.3976
83.1574
143.444
194.269
226.914
240.067
239.288
233.232
228.782
227.738
226.775
220.484
205.591
183.83
161.74
147.46
146.277
157.43
173.995
186.041
185.48
170.12
144.828
119.167
102.677
100.173
109.402
122.232
128.764
122.312
102.769
76.7048
54.208
44.0584
49.6448
67.5786
89.5621
106.441
112.363
107.043
95.2414
83.9662
78.9902
82.3926
92.1172
103.431
111.297
112.448
106.341
94.8786
81.3065
68.9071
59.9643
55.2257
53.9222
54.3246
54.729
54.58
55.219
59.7025
71.4338
91.9783
119.068
146.016
163.292
161.977
137.72
93.3077
38.4369
-13.4757
-50.1494
-64.814
-58.1796
-37.263
-11.8425
9.64322
22.8779
28.1326
28.6666
28.268
29.307
32.1153
35.6173
38.4902
40.0242
40.2612
39.5605
38.0914
35.7028
32.2539
28.1042
24.3212
22.3502
23.269
27.0602
32.372
36.9773
38.7446
36.6342
31.207
24.3897
18.625
15.8417
16.7349
20.6565
26.0856
31.3771
35.4054
37.846
39.0721
39.8331
40.9354
43.0483
46.617
51.7885
58.29
65.3207
71.5987
75.6757
76.4729
73.8106
68.6276
62.6966
57.8965
55.3684
54.9798
55.3926
54.7212
51.4539
45.1753
36.7382
27.8281
20.1747
14.8156
11.7503
10.0903
8.56793
6.13517
2.41403
-2.11376
-6.17015
-7.95005
-5.57432
2.28311
15.6795
32.8379
50.0949
62.6725
66.2767
59.0517
43.0232
24.1256
10.3884
8.7125
21.5177
44.8971
69.4618
83.9018
79.9217
56.3421
20.3118
-15.2028
-36.7351
-36.1023
-13.9734
20.4872
53.7638
73.97
75.8541
62.5309
43.2766
28.6382
25.3462
33.4881
47.1639
58.0633
59.999
52.0669
38.9195
28.1635
26.3298
35.5095
52.3137
69.5782
79.849
78.8511
67.2542
49.9951
33.6764
23.4773
21.133
24.8559
30.9939
36.3364
39.7567
42.3747
46.3313
53.0373
61.9918
70.8509
76.6558
77.4589
73.3918
66.5865
60.0423
56.1209
55.5163
57.2221
59.4133
60.6426
60.6094
60.0626
59.9608
60.4954
60.7056
59.0878
54.9896
50.0085
48.4247
56.0436
77.606
113.775
159.192
202.89
231.411
233.719
205.944
153.76
91.034
34.9712
-0.366132
-9.36748
3.38466
25.757
43.8552
48.2231
37.5553
18.3163
0.741287
-6.5243
-0.351953
16.2098
36.4924
54.2022
66.4581
74.2725
80.5353
87.0676
92.7652
94.0322
87.1777
71.1773
48.9869
26.523
9.88899
2.50235
3.79278
10.1422
17.3596
23.1061
27.8222
33.7293
42.7063
54.5074
66.5003
75.0889
77.898
75.3265
70.4788
67.4897
69.238
75.7946
84.4995
91.5881
94.388
92.8066
89.2701
87.1915
88.879
94.0926
100.057
102.899
99.6885
89.9566
75.9027
61.2517
49.4476
42.1637
38.8395
37.3197
35.0715
30.2425
22.0726
10.6793
-3.36367
-19.2051
-35.5253
-50.2697
-60.7799
-64.5746
-60.5418
-49.8871
-36.153
-24.07
-17.6684
-18.5648
-25.3198
-34.2233
-41.1032
-43.2157
-40.2703
-34.1505
-27.6142
-22.7688
-20.1515
-18.8243
-17.2896
-14.6062
-11.0433
-7.9387
-6.90085
-8.84122
-13.3762
-18.9027
-23.2858
-24.7965
-22.8405
-18.1478
-12.3645
-7.26661
-3.97991
-2.56922
-2.17329
-1.59313
-0.0165288
2.50824
5.10768
6.61419
6.30191
4.40455
2.09123
0.867819
1.70242
4.36007
7.35608
8.62689
6.62887
1.3178
-5.52303
-10.8478
-11.6201
-6.24757
4.48332
17.4521
28.2995
33.1761
30.4213
21.4163
10.1571
1.63478
-0.320878
5.23711
15.94
27.2443
34.6547
35.9408
32.1905
27.1113
24.9212
27.9769
35.4659
43.912
49.1983
48.9154
43.6465
36.4513
30.9147
29.0037
30.0694
31.5623
30.9139
27.2852
22.0173
17.5369
15.5653
15.9926
17.3296
18.5104
20.7496
27.922
44.7614
73.6129
111.603
150.153
177.597
183.948
165.493
126.855
79.3321
36.2674
7.67811
-3.29298
-0.57078
7.79703
13.9803
13.85
8.04132
0.449039
-4.65762
-5.16147
-1.95754
2.07877
4.16557
3.39341
1.18159
0.242471
2.76635
8.94976
16.7327
22.8727
24.7083
21.5919
15.1885
8.50395
4.22476
3.32053
4.68525
5.98621
5.20416
1.96751
-2.08791
-4.14799
-1.78538
5.60525
16.3058
27.0161
34.4832
37.1869
36.1967
34.7233
36.5406
44.0332
56.8384
71.7896
84.2444
90.1981
88.1641
79.8835
69.4768
61.4302
58.42
60.099
63.4943
64.8228
61.7473
54.8207
47.2715
43.2012
45.176
52.598
61.8502
68.2273
68.6182
63.4208
56.5372
53.3499
57.7214
69.644
84.8426
96.5898
98.8073
88.8685
68.7222
43.8851
20.9422
4.87114
-2.56604
-2.80577
0.847464
4.99197
7.44693
7.65738
6.28537
4.44684
3.07185
2.62631
3.1489
4.40918
6.02755
7.52912
8.4027
8.23046
6.8667
4.56153
1.92221
-0.309398
-1.56824
-1.70453
-1.01733
-0.0628117
0.655965
0.942375
0.958484
1.04752
1.43561
2.00391
2.2967
1.80048
0.358255
-1.53135
-2.75839
-2.0485
1.36684
7.20753
14.068
19.925
23.0269
22.7193
19.758
15.9202
13.113
12.4669
13.9124
16.4475
18.8917
20.6369
21.9279
23.5253
26.0055
29.1889
32.0942
33.4662
32.5483
29.6165
25.9511
23.2844
23.0667
25.9572
31.7363
39.5328
48.0942
55.9186
61.3228
62.7152
59.2722
51.8745
43.7715
40.3129
47.4082
69.0482
104.887
149.12
191.493
220.342
226.601
207.135
166.002
113.075
60.6276
19.2785
-5.09493
-12.4139
-7.28248
3.55145
13.9518
20.2726
21.8167
20.0231
17.035
14.4354
12.6922
11.4011
9.99253
8.37387
7.08994
6.92623
8.24939
10.567
12.6694
13.3463
12.2606
10.3776
9.5482
11.3526
15.8474
21.0631
23.7729
21.3208
13.5582
3.67559
-2.82271
-0.739632
11.8674
32.0703
52.8897
66.3845
67.5452
56.9498
40.6847
27.4528
24.3194
33.3152
50.6768
69.0757
81.5732
85.1322
81.8258
77.2069
76.8828
83.2822
94.4047
105.151
110.363
107.769
99.1729
89.2713
82.8603
82.0695
85.1927
87.7316
85.0032
74.8109
58.6951
41.1269
27.1709
19.9551
19.3216
22.2922
24.9472
24.5675
20.8433
15.5882
11.3023
9.56629
10.2582
12.0055
13.4812
14.627
16.9442
22.5891
32.7877
46.5653
60.6799
70.9794
74.5527
71.4886
65.149
60.6145
61.9774
69.9069
80.9066
88.8744
88.3173
77.565
60.1639
43.5023
35.2148
39.2128
53.5269
71.2387
84.0884
86.8071
79.7644
68.4549
60.1576
59.7404
67.0552
77.3954
84.6455
85.1625
80.0476
74.4879
74.6332
83.9014
100.859
119.806
133.608
137.126
129.458
114.043
96.9249
84.2473
80.1655
85.7883
99.1538
115.915
130.467
137.419
133.246
117.74
94.5528
70.3122
52.345
45.8399
51.7541
66.5329
83.8237
97.333
103.398
102.083
96.4779
90.8426
88.6832
91.6342
99.3491
110.017
120.982
129.244
132.004
127.511
116.156
101.275
88.9408
86.3175
98.9549
128.082
169.202
212.807
247.096
261.679
250.88
215.462
162.318
102.378
47.4929
7.22876
-13.5751
-15.8099
-5.32263
9.50324
21.0728
25.5734
24.3331
22.8078
27.5318
42.4384
66.4072
93.3677
114.981
124.524
119.922
104.351
84.2
65.6952
52.1508
43.3567
37.2093
32.3006
29.6249
32.1939
42.7628
61.1688
83.1352
101.566
109.833
105.278
90.8985
74.1391
63.3161
63.5583
74.4175
90.3883
103.98
109.627
106.346
97.8547
90.2902
88.9498
95.8404
109.18
124.77
138.158
146.251
147.708
142.383
130.742
114.015
95.0259
78.8233
71.9974
80.3055
105.452
142.807
181.758
209.148
214.528
194.728
155.402
108.665
67.957
42.7016
35.3
41.6198
54.241
66.3985
74.5352
78.5094
79.9866
80.4664
80.2692
78.8903
76.1083
72.8055
70.8107
71.8707
76.5032
83.5544
90.7768
96.0676
98.6026
99.2096
99.8229
102.383
107.799
115.463
123.467
129.306
130.724
126.379
116.148
101.069
82.9955
64.1053
46.4331
31.5618
20.5289
13.8864
11.7658
13.8198
19.0568
25.7569
31.7226
34.9737
34.6828
31.8629
29.2772
30.3618
37.5033
50.5038
66.1446
79.3075
85.2994
82.2807
72.4844
61.4179
55.2743
57.792
68.2169
81.5423
91.0203
91.6863
83.0158
69.2385
57.0926
52.2244
56.219
65.9089
75.3196
79.097
75.4192
66.7246
57.9161
53.2361
53.8147
57.4617
60.8364
62.5641
65.1416
74.1056
94.5902
127.121
165.215
196.586
207.823
190.467
145.429
83.4508
21.2168
-25.0443
-45.4764
-39.3838
-13.9455
20.0432
53.0062
79.6601
99.237
113.407
123.57
129.237
128.336
119.028
101.768
80.2685
60.6952
49.3973
50.2359
62.7666
82.1428
100.855
111.633
110.362
97.7923
79.2993
62.6974
54.943
59.1074
72.9714
89.9427
101.959
103.082
92.1239
73.0618
53.0973
39.3581
35.8864
42.3227
54.738
67.9305
77.8304
82.795
83.377
81.0893
77.1823
72.2315
66.6126
61.2427
57.7727
57.8634
61.939
68.3361
73.6581
74.4069
69.0696
59.3772
49.7948
45.2941
48.5373
58.0764
68.7187
74.0293
69.7085
56.0202
37.9012
22.6253
16.2202
20.5081
32.2844
44.9924
51.9416
49.3833
37.9429
21.869
6.70314
-3.31008
-6.79698
-5.22899
-1.60061
1.29592
2.07638
0.978574
-0.781022
-1.96408
-2.00307
-1.13344
-0.0440669
0.63269
0.663738
0.240507
-0.24549
-0.483332
-0.40196
-0.144675
0.080504
0.153724
0.102381
0.0460842
0.0827122
0.202026
0.288016
0.20915
-0.0652701
-0.407849
-0.589237
-0.429949
0.0427079
0.548232
0.68217
0.176449
-0.860797
-1.9056
-2.26639
-1.5283
0.0627004
1.56254
1.76708
-0.032204
-3.38401
-6.55528
-7.1626
-3.34434
5.11035
16.3361
27.0178
33.851
35.1136
31.4919
25.663
20.8208
18.9518
19.8561
21.5073
21.5698
19.1724
15.8202
14.7746
19.1228
29.5906
43.4332
55.2536
59.5744
53.9598
41.0326
28.1296
24.4475
36.7995
65.9021
105.02
141.814
162.82
158.757
128.417
79.4546
25.6694
-18.106
-41.393
-41.5138
-23.7609
1.59819
24.0055
36.8518
39.4725
36.247
33.5354
36.1317
44.9782
57.0969
67.4882
71.7983
68.3177
58.4178
45.4801
33.1585
24.0101
19.0988
18.4564
21.7647
28.6169
38.1808
48.6572
57.1844
60.5844
56.7441
45.8839
30.8884
16.3376
6.62494
4.11673
8.31668
16.443
25.0274
31.596
35.5165
37.6605
39.2687
40.855
41.8818
41.3741
38.9962
35.8003
34.0682
36.2499
43.5846
55.2102
68.2996
79.1835
84.8821
84.2726
78.3496
69.5304
60.4313
52.7432
46.7131
41.3937
35.449
28.0776
19.6048
11.4657
5.5851
3.428
5.16973
9.42178
13.7356
15.7406
14.4108
10.7882
7.67004
8.2532
14.3217
24.9223
36.3537
43.6816
43.1685
34.416
21.0308
9.29673
5.35164
12.1995
28.0568
46.9251
61.1872
65.0106
56.9425
40.4918
22.4911
10.0847
7.77853
15.8429
30.6247
46.412
57.8603
61.8958
58.4218
49.7815
39.4499
30.6286
25.2857
23.8639
25.5722
28.9912
32.7013
35.7211
37.6617
38.6161
38.8826
38.6714
37.9417
36.4523
34.003
30.7311
27.2804
24.7021
24.0789
26.0124
30.2058
35.3598
39.4767
40.5055
37.1106
29.2874
18.5755
7.74055
-0.0334174
-2.21907
2.0714
11.5864
23.1926
32.9017
37.3545
35.1871
27.6684
18.2354
11.0175
8.93561
12.2428
18.2706
22.6464
21.5554
14.0461
3.2242
-4.42586
-1.54334
16.7153
49.8596
91.1901
129.477
152.713
152.49
127.233
82.9189
30.9775
-15.7246
-47.1781
-59.1033
-53.4349
-36.5235
-16.0934
1.64271
13.6086
19.8611
22.3622
23.3666
24.2279
25.0381
25.0253
23.3144
19.5968
14.42
9.0408
4.97093
3.41604
4.80367
8.55329
13.1855
16.7843
17.7065
15.2971
10.3
4.71586
1.07271
1.36423
6.12146
14.0845
22.6915
29.208
31.9767
31.1766
28.6997
27.1952
28.7581
33.9227
41.4638
49.0771
54.5568
56.8412
56.3945
54.7775
53.6941
54.0633
55.6099
57.1417
57.2922
55.2725
51.2159
45.9721
40.5368
35.4905
30.7776
25.9166
20.4698
14.4556
8.44668
3.30768
-0.256216
-2.06152
-2.50876
-2.31976
-2.11499
-2.08208
-1.92616
-1.12616
0.654068
3.24085
5.91032
7.67981
7.79718
6.17613
3.53403
1.12625
0.174036
1.25263
3.95116
7.00175
8.84921
8.40422
5.61312
1.55184
-2.01897
-3.43202
-1.8525
2.36934
7.8799
12.9213
16.0446
16.6155
14.9355
12.0016
9.07907
7.28628
7.31138
9.28405
12.7726
16.8915
20.5322
22.7108
22.9445
21.4833
19.2243
17.2694
16.3068
16.1635
15.8485
14.1618
10.5835
5.92134
2.24142
1.98109
6.63423
15.7272
26.7284
36.0598
40.7473
39.8385
34.7917
28.5922
24.0802
22.444
22.7482
22.7616
20.5649
15.9373
10.6447
7.42266
8.2637
13.0797
19.6044
24.648
25.961
23.5528
19.616
17.069
17.6201
20.6146
23.489
23.6631
20.7429
17.5854
19.3361
30.7087
52.867
81.6577
108.36
122.853
117.837
92.1555
51.636
7.06683
-29.7899
-50.391
-52.0895
-38.3644
-16.7881
4.18743
18.2299
22.8266
19.2939
11.4231
3.53711
-1.21005
-1.72066
1.12283
5.26779
8.58268
9.7603
8.71766
6.42039
4.2932
3.51754
4.52272
6.85886
9.45995
11.1436
11.1151
9.27133
6.20606
2.95021
0.575783
-0.177109
0.874164
3.32997
6.36501
8.99797
10.3877
10.0759
8.1165
5.05856
1.78318
-0.765385
-1.8749
-1.28486
0.758264
3.64205
6.67275
9.3768
11.6739
13.8337
16.2444
19.1277
22.3786
25.6327
28.5279
30.9873
33.3171
36.0137
39.358
43.0403
46.0791
47.1555
45.2369
40.169
32.8895
25.1019
18.5445
14.2261
12.0371
10.9482
9.68793
7.52771
4.75129
2.56132
2.48561
5.6018
11.9721
20.5431
29.5195
37.0037
41.6176
42.892
41.3479
38.315
35.5771
34.9245
37.6794
44.2833
54.0652
65.315
75.7074
82.9815
85.6543
83.4983
77.6013
69.9931
62.992
58.5093
57.5258
59.8615
64.2632
68.7709
71.2877
70.2386
65.146
56.9091
47.6195
39.8898
35.8954
36.5012
40.8641
46.7205
51.2607
52.2162
48.6922
41.4055
32.28
23.6325
17.3274
14.2276
14.0846
15.8102
17.9448
19.1297
18.4546
15.6309
11.0027
5.42233
0.0324804
-3.99959
-5.73686
-4.66286
-0.775729
5.41154
12.9394
20.5161
26.6817
30.0503
29.6523
25.3479
18.1999
10.6215
6.1069
8.44359
20.4989
42.9021
73.1146
105.38
131.818
144.533
138.125
111.763
69.9602
21.6319
-22.3717
-52.4742
-63.2064
-54.6702
-32.1399
-3.9986
21.189
37.3852
42.6218
38.9173
30.7533
22.847
18.1993
17.2304
18.2913
19.1817
18.8092
18.0521
19.3107
24.9598
35.5777
49.0342
61.1076
67.4484
65.8837
57.7501
47.3982
40.0068
38.8427
43.4888
50.0874
53.5253
50.3716
40.9158
29.1413
20.6405
19.6516
26.8905
39.3713
52.249
61.5562
66.2339
68.324
71.3066
77.6544
87.1014
96.6545
102.319
101.502
94.673
85.3271
78.2649
77.1536
82.694
92.3352
101.608
106.299
104.321
96.3877
85.3162
74.4549
66.1244
60.7961
57.2677
53.5707
48.0556
40.1349
30.4374
20.4448
11.8764
6.10941
3.81051
4.82476
8.27601
12.8118
16.9331
19.3571
19.3479
16.9345
12.9349
8.74004
5.88023
5.48165
7.79182
11.974
16.308
18.7873
17.913
13.3497
6.1151
-1.83368
-8.44774
-12.4428
-13.6957
-12.9486
-10.994
-7.86086
-2.57425
6.24725
19.2065
35.0318
50.3042
60.3721
61.1874
51.2662
32.816
11.3938
-5.90279
-13.0536
-7.50037
8.70101
29.5169
47.2345
55.6135
52.6451
41.6828
30.2506
26.7857
36.5808
58.7779
86.0214
107.278
112.783
98.8489
70.1014
37.7761
14.663
9.04237
20.6366
40.7127
56.4189
57.2703
40.5458
12.8525
-12.9829
-24.1957
-14.4418
12.915
46.2428
71.1702
77.5904
64.8051
42.3237
25.8438
30.1625
62.1907
117.214
180.094
230.904
252.573
237.294
189.141
122.082
54.5587
3.08422
-22.6056
-21.344
0.772852
33.6474
66.8487
92.47
106.641
109.722
105.451
99.2995
96.36
99.2752
106.966
114.904
117.129
109.358
91.7148
69.5105
51.3352
45.0968
53.9394
74.2642
97.1325
112.54
114.408
103.609
87.3316
75.055
73.334
82.2761
95.6868
104.799
103.478
91.9412
76.8812
67.876
72.0835
90.1584
115.653
138.236
148.973
144.833
130.03
113.603
104.587
107.426
119.98
135.03
144.296
142.691
130.591
113.09
96.9321
86.9991
84.3138
86.4743
89.9308
92.4767
94.3322
97.2165
102.178
107.795
110.148
104.815
89.7588
67.2912
43.725
26.6596
21.3021
27.86
41.4878
54.8151
61.6292
59.6778
51.1622
40.8805
33.3113
30.3856
31.0791
32.7315
32.9815
31.0217
27.5551
23.8298
20.7117
18.5496
17.7937
19.6005
25.5856
36.5693
51.1115
65.0892
73.1
71.271
59.919
44.2691
32.4059
31.2902
42.9871
63.3252
83.9007
96.3919
96.7713
87.0476
73.6415
63.4845
60.204
62.5693
65.8935
65.2871
58.6628
47.7577
36.8137
30.0145
29.371
34.2123
42.2386
51.0988
59.3083
66.0384
70.274
70.3455
64.5048
52.3255
35.9208
19.8991
9.71375
9.12953
18.2113
33.0449
47.4324
55.6594
54.8393
45.6602
31.3735
15.91
2.41622
-6.96232
-10.2335
-4.68616
12.86
44.2975
87.7502
135.976
177.146
198.381
190.89
154.411
98.6347
40.5194
-1.73519
-15.5939
1.03601
39.3105
83.4851
117.66
132.182
126.866
109.737
92.1663
82.9475
84.2856
91.5773
96.8586
93.8841
82.0023
66.7073
56.6034
58.4973
73.365
95.4424
114.962
123.049
116.133
97.5534
75.6095
59.2493
53.7707
58.7393
68.9666
77.6935
80.0579
75.0314
65.1022
54.3184
46.0822
41.9279
41.6637
44.3412
49.1376
55.5496
62.983
70.3348
76.1226
79.203
79.5427
78.3539
77.3202
77.3486
77.7487
76.5755
72.1102
64.5939
56.9694
53.8639
59.1248
73.2395
92.2439
108.999
116.362
110.616
93.2524
70.1041
48.2848
32.6887
24.02
19.4122
15.143
9.7006
5.24835
6.50199
17.6084
38.8687
65.3465
88.4063
99.5896
94.8724
77.0136
54.6144
38.1894
35.1225
46.0283
64.3962
79.7836
83.041
70.9968
48.254
25.1581
12.9014
18.1662
39.9505
70.1136
97.3003
112.211
111.575
98.9506
82.2011
69.2019
64.1281
66.1474
70.8751
73.4252
71.1772
64.8054
57.3271
52.1013
51.1499
54.6852
61.7546
71.1663
81.8413
92.3962
100.549
103.23
97.7935
83.825
64.3156
45.1351
32.6598
30.6545
38.1757
49.8628
58.6586
59.5256
52.0361
40.3055
30.3015
26.1691
27.8438
31.4547
32.2647
28.2535
21.962
19.251
25.5899
42.1572
64.316
83.6695
92.6909
89.2143
77.9871
68.1465
67.9223
79.6076
97.7834
111.93
112.012
93.9065
61.6657
25.4678
-3.45913
-18.0662
-18.1323
-9.24737
0.867694
6.40902
5.75622
1.11945
-3.70302
-5.83939
-4.70058
-1.70764
1.0498
2.18326
1.60004
0.180068
-1.02001
-1.42051
-1.07311
-0.379617
0.292013
0.790643
1.10131
1.17217
0.868742
0.123783
-0.859612
-1.58228
-1.51472
-0.524033
0.85423
1.58057
0.723135
-1.81796
-4.9828
-6.96964
-6.29983
-2.95181
1.19784
3.0974
0.22167
-7.58771
-17.2186
-23.01
-18.9477
-1.35104
29.2604
68.0473
107.514
140.105
160.506
166.727
159.829
142.847
119.726
94.7635
72.4485
57.1814
52.4487
59.5264
76.3669
97.5141
115.504
123.434
117.649
99.3165
74.0681
49.8185
33.696
29.4071
36.0961
49.0455
61.7724
68.5777
66.5598
56.433
41.9891
28.4985
20.6505
20.7601
27.9081
38.4133
47.559
51.919
51.1976
48.5169
48.7085
55.2275
67.2774
78.9885
81.6647
68.4533
39.1419
2.18529
-27.8771
-37.0651
-19.5974
17.662
56.9638
77.5442
66.0435
24.0832
-31.3356
-75.3646
-87.2607
-60.6924
-7.01078
50.267
86.8869
89.2735
60.1875
16.1293
-21.6154
-37.2905
-27.1491
0.554445
31.0926
50.7376
52.29
36.5472
10.1066
-18.4108
-41.52
-54.3751
-54.9275
-43.6712
-23.5524
0.178408
20.8425
32.281
31.3472
19.6923
3.64223
-8.13869
-8.27064
6.15332
32.3775
63.3266
90.706
108.237
113.466
107.458
92.8701
71.7437
44.3881
10.0753
-30.8494
-74.7273
-113.75
-137.493
-136.592
-107.133
-53.6374
11.1231
69.9191
107.213
115.087
96.2423
62.5537
29.7258
10.4856
9.48531
22.2479
38.4611
47.7546
44.9354
32.0839
16.6864
7.09174
7.90015
17.7462
30.4831
38.8778
38.6371
30.5682
19.8408
12.9562
14.2077
23.5516
36.908
48.5493
54.169
52.9846
47.8514
43.4581
43.6383
49.2132
57.4513
63.405
62.4807
53.0115
37.5801
22.3712
14.7082
19.7795
38.0231
64.4577
90.4465
107.259
109.866
99.1674
81.4971
65.5613
58.2648
61.5187
71.6606
81.7599
85.534
80.725
70.1031
59.6184
54.8562
57.9051
66.4533
75.5586
80.9046
81.4658
79.9001
80.4385
85.6541
94.2477
101.402
101.647
92.5617
76.9577
62.0346
55.7268
62.2166
79.1926
98.5437
110.276
107.612
90.5456
65.934
44.1042
33.788
38.0302
53.0937
70.7317
82.4571
83.5352
74.7685
61.4354
50.223
45.8707
49.159
56.9952
64.2476
66.2267
60.6244
48.1915
32.1234
16.6419
5.44417
0.555383
1.85963
7.34863
13.9648
18.7951
20.2545
18.8218
16.9527
18.0672
24.9307
38.1244
55.3895
72.3007
84.0807
87.7342
83.4165
74.2711
64.7452
58.2355
55.3433
53.7582
49.9275
41.6609
30.2124
20.5447
19.3815
31.8265
58.1758
92.5933
124.511
142.344
137.984
110.151
65.1515
14.7328
-28.04
-53.1934
-56.8487
-41.821
-15.8426
11.6676
32.948
44.1542
45.8943
42.1041
37.897
37.31
41.7954
49.9656
58.5856
64.3154
65.4019
62.5344
58.4454
56.4154
58.3999
63.7376
69.1846
70.3916
64.1916
50.5733
33.2667
18.486
12.2875
17.7468
33.3438
53.4245
70.617
79.0994
77.1555
67.7712
56.9876
50.8475
52.4895
60.8516
71.6038
79.7463
82.4387
80.5197
77.9089
79.2517
87.1356
100.431
114.679
124.309
125.471
117.975
105.322
92.9113
85.4314
84.8051
89.6455
96.3047
100.781
100.437
94.7796
85.1594
73.8451
63.0668
54.4358
48.7665
46.0893
45.6784
46.1222
45.6178
42.5968
36.5197
28.4154
20.7327
16.3856
17.3582
23.5739
32.6918
41.034
45.2313
43.7543
37.5351
29.3734
22.4784
18.9466
18.9705
21.121
23.4396
24.6493
24.7916
24.9812
26.503
29.8353
34.1861
37.7998
38.8398
36.3414
30.7233
23.6054
17.0628
12.7113
11.0721
11.4795
12.5172
12.7268
11.25
8.13429
4.21316
0.655514
-1.60017
-2.28635
-1.94719
-1.72409
-2.86351
-6.13031
-11.3572
-17.3301
-22.1026
-23.6729
-20.8048
-13.6758
-4.05833
5.11646
10.7339
10.6876
4.82598
-4.78237
-14.4719
-20.3466
-19.8927
-13.1515
-2.86567
6.61186
11.3108
9.72929
4.03038
-0.369262
3.10653
19.1245
47.6741
82.9323
114.532
131.012
124.221
92.8681
43.6358
-10.7923
-56.123
-81.5099
-83.1797
-65.1455
-36.8199
-8.72629
11.6902
22.3164
25.8967
27.4109
30.8875
37.3602
44.9011
50.4448
52.1391
50.7467
49.2637
51.0167
57.4101
66.7034
74.6025
76.4045
69.5459
55.1602
37.7787
23.2991
16.2534
17.7538
25.1213
33.331
37.5089
35.2338
27.5536
18.2955
12.0835
12.0648
18.4255
28.3486
37.3593
41.3731
38.4837
29.7177
18.499
9.16243
5.22801
8.17182
17.1178
29.4328
41.8442
51.5716
57.0678
58.2076
55.9933
51.989
47.7192
44.2215
41.8594
40.4107
39.3523
38.1877
36.6495
34.6795
32.2284
29.0537
24.723
18.9112
11.866
4.73746
-0.538053
-1.89551
1.88539
10.3672
21.2831
31.2129
36.8901
36.5721
30.8267
22.3281
14.7092
10.9629
12.1104
16.7532
21.7401
23.6799
20.628
13.1616
4.29863
-1.77373
-1.62239
5.74831
18.2943
31.7712
41.6726
45.3464
43.2267
38.5319
35.5542
37.4129
44.4381
54.0354
62.0846
65.1056
62.0165
54.5559
46.2005
40.244
38.1424
39.0338
40.6209
40.8098
39.0779
36.7489
36.0404
38.5047
43.8459
49.8607
53.5576
52.7956
47.4718
39.5657
32.0395
27.26
25.8645
26.6768
27.6271
27.0355
24.4643
20.6849
16.9121
13.9142
11.6325
9.53941
7.41856
5.93909
6.52918
10.5391
18.1934
28.0254
37.2297
42.8257
43.0297
38.1007
30.2129
22.4417
17.4002
16.1958
18.1541
21.3414
23.5545
23.304
20.397
15.9465
11.8568
10.0021
11.4003
15.7051
21.26
25.7711
27.3753
25.6285
21.8798
18.7264
18.7115
22.8906
30.0633
37.1888
40.8716
39.1732
32.7532
24.6613
18.8426
18.1456
22.9152
30.9186
38.5905
42.8593
42.5478
38.6717
33.6445
29.9946
29.3551
32.1506
37.873
45.4939
53.6324
60.4952
63.9702
62.2621
55.0446
44.5342
35.617
34.4642
45.887
70.5437
103.476
135.009
153.952
151.864
126.526
83.0754
32.2965
-13.113
-42.7065
-51.2408
-39.5153
-13.1931
19.5475
50.4822
73.1906
84.0416
82.4351
70.5108
52.4312
33.2738
17.649
8.37203
5.67248
7.34033
9.85909
10.1113
6.9199
1.70576
-2.08814
-0.599713
8.50289
24.5876
43.816
60.296
68.266
64.4878
49.8615
29.4842
10.942
1.36827
4.43574
18.649
37.8742
54.0745
61.1136
57.8106
48.619
41.3921
43.2045
56.3343
76.6048
95.1593
102.938
95.5912
76.1736
54.0474
40.3918
42.5839
60.3816
85.9377
107.657
115.882
107.459
86.8906
63.6437
47.196
42.4894
48.0738
57.6526
63.9111
62.4163
53.5555
41.7163
32.4528
29.3609
32.3435
38.0126
41.7568
40.1936
32.6983
21.3772
9.75283
1.05215
-2.98235
-2.30169
2.04712
8.75184
16.7454
25.2016
33.2415
39.7721
43.7413
44.728
43.4662
41.8443
42.1956
46.1387
53.5617
62.3507
69.11
70.5934
65.1704
53.6072
38.7854
24.5146
14.0271
8.85044
8.5119
11.0977
14.3068
16.4869
17.2346
17.3916
18.5154
22.0737
28.6694
37.5856
46.8505
53.8604
56.3793
53.5259
46.2842
37.2325
29.5398
25.6683
26.4122
30.7488
36.5416
41.6661
44.92
46.2624
46.3824
46.0162
45.5354
45.0485
44.816
45.5062
47.9345
52.3613
57.8542
62.3005
63.2804
59.4062
51.3129
41.5983
33.6139
29.7573
30.2841
33.3818
36.4624
37.8414
37.6989
37.6792
39.3903
42.8333
45.8959
45.389
39.0852
27.5011
14.2174
4.37038
2.05943
8.11491
19.5172
30.8347
36.9108
35.3514
27.5365
17.7557
11.1087
11.3886
19.9949
36.1641
57.9903
83.3372
110.018
135.303
155.418
165.811
162.467
143.833
112.301
74.2963
38.6023
13.4917
3.87792
9.75735
26.6124
47.5221
65.97
78.1113
83.6343
85.0732
86.1185
89.7887
97.2123
107.36
117.621
124.857
126.499
121.389
110.167
95.1486
79.7187
67.3794
60.7355
60.7469
66.5302
75.7774
85.6004
93.4358
97.6591
97.7531
94.1169
87.747
79.9864
72.3844
66.5664
64.0069
65.7045
71.8926
81.939
94.4774
107.656
119.337
127.196
128.891
122.543
107.63
85.9847
62.2454
43.1048
35.2066
42.3507
63.3256
91.6903
118.023
133.865
135.537
125.81
112.412
103.953
105.329
115.052
126.014
129.333
119.26
96.4751
67.9939
43.7509
31.7539
34.4374
48.0971
65.5107
80.0767
89.0477
94.1
99.1271
106.782
115.973
121.878
118.505
102.332
74.9424
43.1555
16.5509
3.64417
8.56438
29.666
60.4229
91.8839
115.477
125.171
118.624
97.4598
66.9195
34.9254
10.3729
0.649121
8.92191
32.322
62.2119
87.0266
96.8957
88.0943
65.0844
38.8358
21.9164
22.5843
40.801
68.2427
92.3769
102.552
94.9808
74.1143
49.8339
32.1473
26.3152
30.9625
39.9392
46.5626
47.6099
44.7374
42.6589
45.4081
53.1475
61.6167
64.6571
58.3222
44.0339
28.7238
21.6269
29.3767
52.1131
82.8329
110.452
125.013
122.317
105.612
83.607
66.019
59.0649
63.1151
73.3976
82.9875
86.2823
81.2327
69.5564
55.3294
43.0132
35.8935
35.3208
40.5957
49.2043
57.3442
60.9255
57.1095
45.9577
31.2733
19.7561
18.3455
30.7671
55.081
83.8196
107.031
116.882
111.416
95.3779
77.5679
66.1745
64.6876
70.6489
77.8116
80.2861
76.1482
68.4151
62.951
64.6991
74.5505
88.6551
100.458
104.169
97.6871
83.4789
67.1895
54.9674
50.9714
56.1418
68.4469
84.0648
98.7254
108.708
111.425
105.783
92.4171
73.6972
53.2671
35.0552
22.046
15.3568
14.1046
16.1428
19.255
22.1263
24.578
27.0411
29.7418
32.2395
33.6785
33.5732
32.5245
32.2612
34.8468
41.4894
51.7344
63.6368
74.8873
84.2057
92.0607
100.154
109.9
120.869
130.297
134.215
129.719
117.138
100.704
87.1124
82.5303
89.565
105.817
124.862
139.207
143.713
137.751
125.078
111.662
102.713
100.497
103.927
109.842
115.035
117.778
118.123
117.063
115.317
112.645
108.087
100.876
91.2755
80.6991
70.9409
63.013
56.3766
49.1627
39.3701
26.3861
11.8891
-0.538413
-7.06335
-5.74251
2.02121
11.6605
17.451
15.5694
6.74586
-2.95895
-3.98986
12.72
51.2142
107.505
169.702
221.607
248.512
242.876
207.429
154.301
100.489
61.5423
46.1207
53.6185
75.6424
100.428
118.06
124.167
120.629
113.312
108.236
108.239
111.809
114.567
112.444
104.651
94.6497
88.3873
90.6557
101.616
115.62
123.329
116.266
91.4913
53.7694
13.8713
-16.2853
-29.1654
-24.9139
-10.7296
3.199
8.86425
3.9152
-8.21226
-21.1438
-29.3846
-30.7897
-26.4835
-18.7623
-8.7335
4.58225
23.1263
47.5546
75.547
101.964
120.911
128.516
124.789
113.494
100.203
89.6843
84.0726
82.6456
83.0354
82.954
81.4001
78.8163
76.3723
75.0058
74.8371
75.2012
75.1194
73.8289
71.0756
67.1083
62.4978
57.9344
54.0627
51.326
49.7957
49.0464
48.2015
46.2281
42.4092
36.7672
30.1764
24.046
19.6966
17.7509
17.8719
18.9961
19.9255
19.942
19.1044
18.087
17.6891
18.3262
19.7999
21.4571
22.6073
22.9311
22.6382
22.3068
22.5277
23.5764
25.2908
27.1924
28.7409
29.5637
29.5462
28.781
27.4556
25.77
23.9239
22.141
20.675
19.763
19.5464
20.0079
20.9626
22.1024
23.0662
23.5119
23.198
22.0844
20.4334
18.829
18.0201
18.5641
20.4053
22.6572
23.855
22.7344
19.2466
15.2417
14.2531
20.1886
35.3346
58.5934
84.9668
106.828
116.666
110.18
88.2882
57.0131
25.2121
1.12944
-10.6515
-10.4977
-2.78775
6.63097
13.2336
15.503
14.8472
14.0567
15.3325
19.0105
23.5941
26.9032
27.538
25.7501
23.2388
22.0556
23.311
26.4589
29.5658
30.3956
27.6847
21.9028
15.0942
9.90134
8.29437
10.6535
15.6404
20.8774
24.0637
23.9735
20.8889
16.3176
12.1963
9.99409
10.1362
11.9771
14.2716
15.8628
16.2292
15.6354
14.8483
14.6084
15.1616
16.1092
16.6548
16.101
14.3102
11.8591
9.78446
9.04677
10.004
12.1922
14.5484
15.9695
15.9063
14.6661
13.2439
12.7627
13.8191
16.0924
18.4444
19.4766
18.2622
14.8739
10.4232
6.57977
4.80652
5.68892
8.68832
12.4271
15.3464
16.3982
15.4383
13.1598
10.6524
8.85343
8.1819
8.51018
9.42105
10.5421
11.7339
13.0347
14.4405
15.7203
16.4376
16.2039
15.0113
13.4055
12.3335
12.6926
14.8115
18.1677
21.5441
23.5869
23.4889
21.4308
18.5255
16.2699
15.78
17.2044
19.6238
21.4926
21.3978
18.7593
14.1304
8.96855
4.99934
3.48117
4.69912
7.89155
11.6086
14.32
15.0022
13.4688
10.3296
6.62608
3.32378
0.902442
-0.753866
-2.09309
-3.3626
-4.06869
-2.74752
2.72258
14.2649
32.4833
55.7616
80.0831
99.8341
109.46
105.426
87.716
60.1987
29.6078
3.42609
-12.5472
-16.0154
-8.68848
4.68981
18.3477
27.6721
30.6941
28.3429
23.5016
19.4067
18.1626
20.0064
23.5411
26.6881
27.8042
26.4128
23.2599
19.7802
17.3328
16.6164
17.5078
19.2989
21.1159
22.2641
22.3677
21.3387
19.3053
16.5968
13.7677
11.5522
10.6603
11.4543
13.6836
16.4935
18.7893
19.8139
19.6084
19.0388
19.2943
21.0948
24.0718
26.7454
27.2123
24.2306
18.1079
10.8424
5.34361
4.06194
7.7187
14.8141
22.2142
26.5602
25.816
20.1916
12.0023
4.55916
0.657714
1.40246
5.89443
11.8547
16.7979
19.1401
18.7223
16.5791
14.1771
12.5909
12.0516
12.0491
11.8417
11.0174
9.76305
8.70903
8.4882
9.31433
10.8548
12.4683
13.6399
14.3163
14.9178
16.0118
17.8649
20.1695
22.1383
22.9197
22.0803
19.8486
16.9683
14.2574
12.1633
10.6037
9.19408
7.69778
6.37527
5.96162
7.24234
10.4746
15.0321
19.5402
22.4775
22.9201
20.9984
17.7901
14.706
12.7336
11.9882
11.8276
11.432
10.4503
9.27317
8.74038
9.46924
11.2684
13.0742
13.5203
11.8218
8.39871
4.77225
2.70663
3.07635
5.19488
7.13885
7.02273
4.54552
1.84056
2.93533
11.8685
30.3198
56.0112
82.8643
103.049
110.075
101.49
79.9032
51.8618
25.1442
5.77724
-3.88425
-5.29093
-2.24042
1.25725
2.69955
1.69509
-0.575447
-2.50171
-3.06815
-2.26733
-0.846402
0.300349
0.665497
0.309251
-0.32471
-0.760631
-0.766392
-0.416621
0.0350648
0.347958
0.421207
0.302177
0.109686
-0.0529635
-0.138769
-0.145647
-0.0864655
0.023414
0.153699
0.245776
0.228325
0.0663914
-0.188539
-0.396308
-0.398895
-0.135561
0.273938
0.555037
0.430083
-0.177956
-1.02542
-1.62513
-1.52259
-0.630064
0.602354
1.34318
0.844632
-1.01575
-3.45236
-4.98626
-4.12624
-0.188699
6.20643
13.294
18.9554
21.7483
21.6114
19.8355
18.2997
18.3931
20.2333
22.6196
23.7385
22.2062
17.8539
11.832
6.01976
2.11445
0.917991
2.16906
4.9138
8.10394
11.0379
13.4365
15.2282
16.306
16.4911
15.738
14.3889
13.214
13.1088
14.5714
17.2779
20.0695
21.4429
20.3268
16.7278
11.8637
7.67067
5.91708
7.38151
11.5237
16.8068
21.4744
24.3516
25.2517
24.821
23.987
23.3861
23.1209
22.9502
22.7134
22.63
23.2089
24.7853
27.0044
28.6699
28.189
24.4652
17.7524
9.91248
3.79941
1.98709
5.47509
13.0907
21.9692
28.9117
31.9136
31.0379
28.152
25.6857
25.1323
26.181
27.02
25.6789
21.6471
16.7881
14.8996
19.9901
34.0692
55.5839
79.3868
98.3964
106.279
99.9704
80.9007
54.4136
27.6798
7.07638
-3.84257
-5.02956
0.789489
9.70762
18.2543
24.3694
27.5192
28.1989
27.2889
25.6414
23.9888
23.0046
23.2768
25.0924
28.1594
31.5194
33.8309
33.9632
31.6047
27.5137
23.2129
20.2455
19.3889
20.2718
21.6258
22.0356
20.7553
18.114
15.2792
13.5305
13.4924
14.796
16.3747
17.2032
17.0116
16.5124
16.9775
19.4024
23.7636
28.835
32.7087
33.7525
31.4744
26.81
21.6735
18.0243
16.9573
18.2903
20.8269
23.0977
24.1446
23.9325
23.225
23.0624
24.1809
26.682
30.0728
33.5664
36.4151
38.0913
38.286
36.8321
33.6926
29.0568
23.4587
17.7642
12.9427
9.69046
8.11559
7.69773
7.59505
7.15073
6.30389
5.63852
6.01014
7.95407
11.2349
14.8362
17.4363
18.1193
16.9102
14.8093
13.2809
13.4714
15.5886
18.7823
21.5835
22.6462
21.3903
18.2238
14.28
10.8649
8.92604
8.78051
10.1493
12.3754
14.659
16.2261
16.4578
15.0524
12.2203
8.79579
6.09798
5.4723
7.65009
12.252
17.7716
22.1586
23.778
22.2499
18.682
15.1046
13.3781
14.1714
16.6098
18.8182
19.0603
16.803
13.0601
9.79151
8.71078
10.2319
13.2156
15.6899
16.1048
14.3237
11.6979
10.1429
10.7932
13.1379
15.284
15.3039
12.8788
10.1539
11.0789
19.371
36.1112
58.34
79.6024
92.394
91.4186
76.0668
50.8649
23.6465
2.32873
-8.16485
-7.44613
0.889191
11.4163
19.4473
22.7818
21.99
19.3871
17.455
17.5843
19.6687
22.5418
24.8346
25.7212
25.2103
23.9524
22.779
22.2585
22.4689
23.0349
23.3563
22.9031
21.4657
19.276
16.9594
15.3216
15.0327
16.3255
18.8472
21.751
24.017
24.871
24.1103
22.1816
19.9717
18.4146
18.1039
19.0893
20.9346
22.9836
24.6897
25.8469
26.6254
27.4137
28.5559
30.118
31.798
33.0323
33.2609
32.2331
30.2005
27.876
26.1405
25.6146
26.3071
27.551
28.3054
27.7035
25.5633
22.5576
19.9038
18.7001
19.2644
20.8663
22.0506
21.4158
18.4333
13.8384
9.34418
6.80402
7.26634
10.4332
14.8153
18.4907
20.0521
19.2397
16.9568
14.7098
13.8104
14.769
17.154
19.9225
21.9872
22.7108
22.1073
20.7167
19.2722
18.3495
18.1472
18.4633
18.8442
18.8281
18.1782
17.0107
15.752
14.9288
14.8766
15.5145
16.3273
16.602
15.8221
14.0094
11.8009
10.1827
9.99648
11.4857
14.1434
16.9619
18.9508
19.6321
19.2314
18.4689
18.0896
18.421
19.2131
19.8361
19.69
18.5698
16.7763
14.9315
13.6333
13.1559
13.3519
13.7728
13.9164
13.4667
12.4336
11.164
10.2334
10.2373
11.5084
13.8327
16.3052
17.4928
15.985
11.2116
4.17162
-2.38288
-4.61901
0.922998
15.6196
37.5899
61.7374
81.1957
89.711
84.0018
65.0817
37.9605
9.84703
-12.3728
-24.3389
-25.2697
-17.5983
-5.54186
6.65964
16.0949
21.6978
23.9402
24.0532
23.2398
22.22
21.2095
20.1967
19.268
18.7603
19.1504
20.7575
23.4459
26.5222
28.9293
29.6803
28.3369
25.2868
21.6534
18.841
17.9098
19.0774
21.6007
24.1159
25.2871
24.4536
21.9559
18.9737
16.9521
16.8973
18.8944
22.0875
25.132
26.8856
26.9823
25.9917
25.0806
25.3531
27.2189
30.1246
32.7944
33.8599
32.5504
29.091
24.6101
20.6169
18.3241
18.1524
19.6372
21.7426
23.3873
23.9145
23.2986
22.0371
20.8266
20.1975
20.2685
20.7042
20.869
20.1036
18.0221
14.7241
10.8448
7.41218
5.54124
6.05943
9.19287
14.4327
20.6411
26.3703
30.2913
31.5927
30.2248
26.9159
22.9537
19.7931
18.5974
19.8519
23.1796
27.4404
31.1053
32.7943
31.7862
28.305
23.4578
18.8377
15.9355
15.5868
17.6677
21.1552
24.5307
26.3708
25.9
23.2875
19.5647
16.1871
14.4151
14.7803
16.8793
19.6015
21.6888
22.353
21.6328
20.3001
19.3686
19.4806
20.5286
21.7352
22.1466
21.2434
19.2924
17.2146
16.0369
16.2556
17.501
18.7115
18.7226
16.9217
13.5905
9.75431
6.65588
5.17947
5.54245
7.36469
9.97498
12.693
14.9137
16.042
15.4984
12.9942
9.03878
5.35487
4.76126
10.2749
23.6319
43.88
66.8524
86.0457
94.7745
88.7897
68.2081
37.8173
5.5179
-20.4803
-34.5277
-35.2742
-25.6315
-11.1265
2.50436
11.3927
14.4866
13.1777
10.0311
7.36488
6.34803
6.90347
8.25057
9.63609
10.8032
11.9881
13.5497
15.5441
17.5508
18.8634
18.9131
17.6449
15.5984
13.6409
12.5164
12.4875
13.2796
14.3392
15.2181
15.8239
16.3846
17.1757
18.227
19.2364
19.7651
19.5796
18.8866
18.2707
18.3502
19.3716
21.0253
22.6277
23.5647
23.7067
23.5073
23.7029
24.799
26.6799
28.6076
29.6261
29.1259
27.2171
24.6875
22.5824
21.6686
22.0926
23.3916
24.7854
25.5274
25.1132
23.3023
20.0661
15.6095
10.5009
5.78176
2.85174
3.02485
6.88252
13.7539
21.6829
28.0355
30.559
28.4181
22.6802
15.9562
11.3082
10.9107
15.0884
22.1853
29.3267
33.7147
33.8566
30.1696
24.712
20.2012
18.797
21.2103
26.5134
32.6806
37.5421
39.6735
38.8176
35.7112
31.5027
27.1325
23.0146
19.1425
15.4686
12.2564
10.1432
9.86262
11.8038
15.6968
20.633
25.4171
29.0469
31.0512
31.5265
30.9084
29.666
28.1163
26.4288
24.7356
23.1982
21.9488
20.9659
20.0327
18.8815
17.4705
16.1875
15.7634
16.8503
19.4747
22.7323
25.0194
24.7905
21.4759
16.0106
10.578
7.58835
8.38545
12.3996
17.2901
20.114
18.9823
14.3475
9.19165
7.90628
14.3072
29.6786
51.7622
75.1966
93.2703
100.284
93.5789
74.4574
47.6882
19.8599
-2.75268
-16.0261
-18.9318
-13.3742
-3.124
7.66433
15.7894
19.7679
19.8741
17.5837
14.7432
12.8232
12.5092
13.6951
15.7734
18.0217
19.899
21.1597
21.8034
21.9515
21.7472
21.3231
20.8225
20.4171
20.2811
20.5176
21.0825
21.7626
22.2396
22.2261
21.6158
20.5764
19.5404
19.09
19.7731
21.9082
25.4358
29.8587
34.3015
37.6993
39.0987
38.0047
34.6619
30.1323
26.0716
24.2126
25.7078
30.5935
37.6369
44.6965
49.4977
50.5127
47.5573
41.8181
35.2925
29.9008
26.699
25.5584
25.4422
25.0972
23.7752
21.6042
19.4351
18.279
18.6686
20.2967
22.1251
22.8914
21.7373
18.6326
14.3939
10.3101
7.58137
6.84258
7.97412
10.2435
12.6685
14.415
15.0634
14.668
13.633
12.4967
11.7214
11.5596
12.0202
12.9215
13.9967
15.012
15.8571
16.5776
17.3391
18.3362
19.6851
21.3486
23.1244
24.6972
25.7246
25.9142
25.0686
23.1072
20.0909
16.2661
12.1077
8.30149
5.61262
4.64161
5.55244
7.91734
10.8037
13.1218
14.106
13.6977
12.6148
12.0314
12.9972
15.8778
20.105
24.378
27.2262
27.6556
25.5636
21.7343
17.4429
13.8859
11.7118
10.8493
10.6617
10.3186
9.20243
7.19396
4.74454
2.71303
2.00385
3.10451
5.69144
8.52064
9.77938
7.90345
2.59774
-4.43234
-9.55548
-8.33511
2.57151
23.5016
50.8232
77.5893
95.7827
99.3274
86.579
61.14
30.5698
3.51806
-13.4596
-18.0317
-12.3344
-1.40838
9.27935
16.0263
17.8888
16.2678
13.5695
11.7731
11.6089
12.592
13.6634
13.9406
13.1485
11.5986
9.87315
8.49671
7.78467
7.87183
8.7845
10.4277
12.4861
14.3674
15.33
14.819
12.8492
10.181
8.10218
7.85288
9.96631
13.8971
18.1858
21.1224
21.5804
19.5819
16.285
13.4011
12.3592
13.6659
16.7819
20.5352
23.7918
25.9846
27.2238
27.9876
28.6514
29.1917
29.2637
28.5835
27.3296
26.2478
26.328
28.1986
31.5943
35.2506
37.3583
36.3992
31.9492
25.023
17.7487
12.4981
10.871
13.0095
17.5552
22.2554
24.9259
24.3304
20.6013
15.0626
9.58976
5.83376
4.65492
5.97368
9.02449
12.8173
16.55
19.7927
22.4248
24.4465
25.8339
26.5377
26.5937
26.221
25.781
25.5816
25.6461
25.6292
24.9948
23.3966
21.0369
18.7379
17.6051
18.4127
21.0559
24.4329
26.9055
27.1459
24.912
21.2881
18.1959
17.3998
19.5364
23.7125
27.9116
30.002
28.8037
24.653
19.1897
14.5233
12.2466
12.7989
15.4377
18.7334
21.2532
22.0781
20.9678
18.2186
14.3974
10.1259
5.98111
2.46186
-0.0543797
-1.39215
-1.64826
-1.17776
-0.465812
0.0653508
0.213519
0.0335486
-0.257053
-0.437266
-0.408724
-0.223558
-0.017153
0.0943453
0.0814364
-0.00131662
-0.0714572
-0.080401
-0.0381462
0.00901507
0.023568
0.00774585
-0.00197565
0.0296166
0.0998414
0.160319
0.147542
0.033181
-0.141713
-0.278106
-0.277487
-0.115282
0.120377
0.260549
0.152825
-0.227633
-0.726674
-1.06952
-1.01718
-0.541143
0.094711
0.423215
0.0241031
-1.17479
-2.70937
-3.63792
-2.87141
0.338192
5.96281
13.0318
19.8503
24.5576
25.8254
23.418
18.3717
12.6886
8.63153
7.88175
10.8913
16.7091
23.3709
28.7037
31.2003
30.5741
27.7437
24.2727
21.5651
20.2447
20.0415
20.2145
20.222
20.1935
20.8752
23.0587
26.8567
31.3374
34.8448
35.9107
34.2448
31.163
29.0762
30.2105
35.2327
42.6007
49.1216
51.5331
48.3079
40.6739
32.2055
27.093
27.9402
34.2492
42.4523
47.5648
45.6887
36.1229
21.994
9.02933
3.00363
7.04527
20.0722
37.1063
51.3431
57.0464
51.9694
38.2319
21.2967
7.54776
1.58457
4.43697
13.4439
23.7506
30.6392
31.5673
26.9978
19.7444
13.3027
10.1026
10.577
13.4346
16.8365
19.6957
22.3014
25.9179
31.6532
39.3468
47.2237
52.5999
53.275
48.8114
40.931
32.7629
27.3427
26.1996
28.8086
33.166
37.0808
39.3701
40.2444
40.7033
41.4001
41.778
40.1076
34.484
24.2069
10.6784
-2.81407
-12.4257
-15.5344
-12.01
-4.25797
4.0249
9.73924
11.9169
12.0788
13.2225
17.9755
26.9024
37.8875
46.9619
50.1912
45.68
34.665
21.1178
10.0351
5.26249
7.93142
16.2533
26.6834
35.743
41.4749
43.7886
43.6655
41.91
38.4029
32.4407
23.9483
14.6454
8.11784
8.36925
17.4608
33.6406
51.3356
63.4215
64.787
55.2326
39.8708
26.5031
21.2478
24.9115
32.3953
35.7817
29.5299
14.7347
-0.334402
-4.21044
11.1521
44.7705
85.453
116.185
122.133
98.1503
51.7593
-0.0961778
-38.8938
-52.8935
-41.7501
-15.2632
12.6222
31
36.4783
32.9247
27.322
24.7058
25.3608
25.7348
22.0644
14.0333
5.89411
4.22271
13.6909
33.5431
57.0703
74.57
78.1929
65.9735
42.8333
18.0941
0.96393
-3.54518
3.7554
17.5758
31.3555
40.4056
43.4162
41.9328
38.6075
35.5389
33.6358
33.0508
33.9822
37.0263
42.7705
51.0221
60.4163
68.8825
74.7648
77.8178
79.2811
80.8466
83.1556
84.9162
83.4279
76.3862
63.8906
49.2729
37.9637
34.8187
41.3834
54.7635
68.9186
77.7675
78.3637
72.2912
64.4454
59.9177
60.8439
65.1109
67.707
63.9113
52.4079
36.445
22.3123
15.9886
19.8806
31.5163
44.9172
53.8418
55.05
49.7775
42.6657
38.8498
40.92
47.4889
54.1385
56.153
51.4435
41.9833
32.9293
29.9033
35.923
49.659
65.9573
78.3387
82.1389
76.649
65.1957
53.2178
45.4389
43.643
46.1518
49.1448
48.9941
44.3211
36.7291
29.9328
27.8455
32.6638
43.8893
58.6764
73.2164
84.4123
91.0496
93.9881
95.3869
97.3945
100.922
105.037
107.242
104.502
94.6249
77.3847
54.9175
31.1677
10.5955
-3.32128
-9.14585
-7.65154
-1.0735
8.14573
18.47
29.6931
42.5034
57.4783
74.0973
90.3429
103.15
109.528
107.849
98.6832
84.8003
70.2661
58.9962
53.342
53.3069
56.7617
60.6242
62.545
62.3479
62.4876
67.1396
80.147
102.654
131.555
159.678
177.91
178.567
158.63
121.396
75.6999
32.9214
2.98452
-8.98521
-3.99464
11.9174
30.5594
44.871
51.2008
49.779
43.4987
35.8677
29.2338
24.0674
19.4341
14.1676
7.97432
1.85142
-2.34877
-2.89598
0.866886
8.10022
16.7572
24.3999
29.1233
30.1677
28.0021
23.927
19.4463
15.7036
13.1873
11.7545
10.8881
10.0383
8.91151
7.6179
6.64608
6.68327
8.33759
11.8544
16.9346
22.7443
28.1417
32.0541
33.86
33.6105
31.9849
29.9897
28.532
28.0546
28.3882
28.8748
28.6923
27.228
24.344
20.436
16.2821
12.7568
10.5234
9.81397
10.3631
11.5091
12.4253
12.4016
11.0812
8.57127
5.38813
2.26412
-0.104947
-1.27089
-1.12928
0.11294
2.05207
4.21267
6.13247
7.40556
7.72096
6.93104
5.1409
2.75891
0.435371
-1.13715
-1.50079
-0.654245
0.914382
2.43167
3.19738
2.91606
1.82107
0.51961
-0.354405
-0.479924
0.0134651
0.67985
1.06602
0.991984
0.624366
0.304558
0.258863
0.398719
0.359299
-0.238569
-1.47708
-3.0001
-4.15725
-4.35982
-3.42616
-1.68863
0.216818
1.74862
2.7848
3.65576
4.8564
6.62855
8.70405
10.4039
11.0549
10.462
9.11648
7.96963
7.88128
9.07056
10.9178
12.2611
12.0267
9.8222
6.14235
2.08088
-1.25115
-3.22788
-3.83735
-3.41637
-2.25356
-0.410608
2.06822
4.72258
6.4354
5.76565
1.88441
-4.33027
-9.77009
-9.73687
0.22184
21.9618
53.012
86.4939
113.036
124.066
115.144
87.8479
49.3576
9.86774
-21.0504
-37.6099
-39.2512
-29.9637
-16.0312
-3.34393
4.56312
7.09654
5.88204
3.35608
1.4558
0.955776
1.56066
2.47759
3.03764
3.0353
2.69571
2.40197
2.40685
2.69936
3.06383
3.25057
3.13423
2.77311
2.35793
2.1007
2.13321
2.46251
2.99144
3.58205
4.12873
4.61392
5.13056
5.86459
7.03915
8.83176
11.2886
14.27
17.4597
20.4478
22.8687
24.54
25.5408
26.1879
26.9104
28.0709
29.8106
31.9832
34.2046
35.9939
36.9437
36.8516
35.7722
33.9832
31.8933
29.9272
28.4224
27.5521
27.29
27.4204
27.6001
27.461
26.7249
25.2883
23.2403
20.8049
18.2385
15.7325
13.3721
11.161
9.086
7.17158
5.4889
4.11957
3.10845
2.44482
2.08545
1.99627
2.1716
2.6074
3.24576
3.94013
4.48576
4.71489
4.60213
4.30276
4.07947
4.14603
4.52055
4.98931
5.21929
4.96072
4.21347
3.24342
2.42667
2.01458
1.97299
2.00944
1.78126
1.15272
0.325586
-0.258175
-0.193754
0.604899
1.81248
2.86928
3.33248
3.1826
2.8793
3.11181
4.38371
6.68458
9.454
11.8631
13.2405
13.3828
12.5721
11.3196
10.0307
8.82482
7.61264
6.3366
5.15094
4.36653
4.17773
4.38883
4.40522
3.58705
1.77698
-0.388102
-1.71264
-1.22126
0.947473
3.18386
3.05051
-1.17487
-8.80566
-15.969
-16.5287
-4.66264
21.9285
59.7696
99.6811
129.536
138.756
122.64
84.5644
34.9724
-12.4635
-45.8507
-59.114
-53.4441
-35.7848
-15.3115
0.375744
7.7174
7.51666
3.39027
-0.59658
-1.89034
-0.212488
2.94678
5.56703
6.29954
5.05079
2.79425
0.870791
0.236341
1.04677
2.72327
4.37439
5.29829
5.30142
4.70889
4.1149
4.03937
4.67376
5.82627
7.06433
7.96118
8.31913
8.27136
8.23
8.71665
10.1534
12.6976
16.1782
20.151
24.0474
27.3607
29.8032
31.3737
32.312
32.9591
33.5861
34.2678
34.8595
35.0839
34.6817
33.5485
31.7935
29.7041
27.6469
25.9669
24.9263
24.6849
25.2919
26.6553
28.4943
30.3179
31.4899
31.3987
29.6837
26.4112
22.0953
17.5246
13.4624
10.3609
8.23349
6.7417
5.44138
4.04385
2.55261
1.21751
0.359413
0.187395
0.716981
1.81664
3.31945
5.09969
7.05302
9.00362
10.6291
11.493
11.2047
9.62954
7.02395
3.99473
1.28256
-0.529817
-1.23622
-1.0443
-0.423862
0.141479
0.364955
0.231782
-0.0741437
-0.324479
-0.383647
-0.260055
-0.0641512
0.0804676
0.11102
0.0459467
-0.0465905
-0.100752
-0.0902418
-0.0331421
0.0297385
0.0634795
0.0567776
0.022357
-0.0150191
-0.0333579
-0.0236052
0.00758308
0.0418479
0.0579906
0.0429171
0.000323998
-0.0482584
-0.0734108
-0.0560586
-0.00416274
0.0446127
0.0407643
-0.045194
-0.195787
-0.345502
-0.413786
-0.358077
-0.214783
-0.0960093
-0.131889
-0.382341
-0.767392
-1.06356
-0.981631
-0.294143
1.05266
2.90578
4.97357
6.95974
8.68782
10.1446
11.4201
12.5869
13.6018
14.3034
14.5147
14.1904
13.506
12.8147
12.4747
12.6394
13.1385
13.5393
13.3728
12.4062
10.8006
9.04928
7.71691
7.12102
7.1439
7.29451
6.99636
5.93986
4.29154
2.63003
1.63809
1.72624
2.80794
4.35896
5.72484
6.49216
6.70129
6.77582
7.21744
8.25911
9.69459
10.9931
11.6295
11.4231
10.6693
9.97255
9.87479
10.5037
11.4602
12.0216
11.5435
9.82219
7.20112
4.36967
1.99444
0.42723
-0.329999
-0.414917
0.147688
1.48897
3.62883
6.06674
7.60242
6.72117
2.56264
-3.95277
-9.56097
-9.27788
1.6985
25.4542
59.3808
95.9234
124.559
135.461
123.399
90.126
44.1154
-2.38732
-37.76
-54.9936
-53.6373
-39.0423
-19.4821
-2.60086
7.23614
9.72689
7.57114
4.40583
2.87831
3.70346
5.90777
7.84985
8.32075
7.14706
5.10164
3.32243
2.64625
3.21837
4.52207
5.73269
6.16374
5.57906
4.25565
2.81759
1.95417
2.15709
3.57429
6.01242
9.05827
12.2514
15.2337
17.8224
19.9958
21.8184
23.3587
24.6481
25.697
26.5465
27.3101
28.1639
29.2795
30.732
32.438
34.1667
35.6285
36.5999
37.0216
37.0205
36.8418
36.7274
36.7973
36.992
37.0966
36.8345
35.9861
34.4822
32.4336
30.0867
27.7186
25.5133
23.469
21.3812
18.9248
15.8145
11.9861
7.71363
3.59506
0.385887
-1.26654
-1.07954
0.735126
3.53574
6.48821
8.8719
10.316
10.8661
10.8682
10.7497
10.8186
11.177
11.765
12.4753
13.2423
14.0443
14.8297
15.4381
15.6022
15.0597
13.7272
11.8314
9.89774
8.57233
8.34799
9.3271
11.1474
13.1167
14.4982
14.8121
14.0135
12.4726
10.7794
9.47524
8.84002
8.82212
9.12407
9.38319
9.3509
8.989
8.45233
7.98703
7.81
8.03341
8.66224
9.64597
10.9353
12.4997
14.298
16.233
18.1421
19.8486
21.2511
22.3808
23.3639
24.2827
25.0121
25.1614
24.2116
21.8274
18.1803
14.0613
10.6358
8.8965
9.08751
10.4583
11.5767
11.1154
8.70402
5.30918
2.8069
2.86629
5.74036
9.74721
11.9522
9.90885
3.6199
-3.44649
-5.13708
4.82255
29.5026
66.2998
106.74
138.992
152.214
140.907
107.293
60.6226
13.6959
-21.8756
-39.5948
-39.6297
-27.5894
-11.3973
2.13429
9.52651
10.9427
8.87787
6.21797
4.7401
4.66423
5.18582
5.42141
5.10955
4.7022
4.92043
6.16055
8.16509
10.1493
11.2691
11.1204
9.96986
8.60375
7.90424
8.40429
10.0536
12.2912
14.3536
15.6404
15.9629
15.5859
15.08
15.0825
16.0741
18.2453
21.4707
25.3696
29.4155
33.0643
35.8784
37.6295
38.3559
38.3543
38.0934
38.0659
38.6216
39.8417
41.5066
43.176
44.3543
44.6756
44.0351
42.6162
40.8089
39.0626
37.7409
37.0293
36.9167
37.2297
37.6807
37.9079
37.5102
36.1067
33.4377
29.4931
24.6053
19.4348
14.8103
11.4579
9.72871
9.45727
10.0351
10.6804
10.7812
10.1433
9.02137
7.92595
7.31695
7.356
7.84933
8.40206
8.68255
8.63571
8.51825
8.73684
9.58661
11.0452
12.7441
14.1358
14.7637
14.485
13.5249
12.3407
11.3752
10.8403
10.6462
10.5036
10.1281
9.42266
8.53352
7.75639
7.35953
7.43504
7.86437
8.40662
8.84007
9.0592
9.06981
8.90387
8.53755
7.89409
6.94505
5.83622
4.92269
4.64168
5.26147
6.65034
8.23291
9.21161
8.97178
7.45645
5.28182
3.49074
3.04427
4.31341
6.8522
9.59059
11.3569
11.4556
9.99418
7.78858
5.91072
5.13057
5.55643
6.65711
7.63444
7.92343
7.53456
7.04808
7.26785
8.73264
11.3634
14.453
17.0199
18.3428
18.3868
17.8715
17.9173
19.4306
22.5485
26.4539
29.6971
30.889
29.4204
25.8139
21.4931
18.0589
16.4527
16.4785
16.9858
16.6496
14.9106
12.4909
11.0887
12.3198
16.4713
21.8658
25.4091
24.2733
17.9491
9.49884
5.05419
11.4077
32.586
67.0119
106.824
140.04
154.911
144.664
110.509
61.4791
11.0875
-27.7427
-47.2683
-47.1176
-33.3496
-15.0962
-0.513836
6.1326
5.18396
0.195986
-4.51791
-6.07159
-3.97628
0.269755
4.43612
6.83692
6.99688
5.54135
3.5826
2.0583
1.37093
1.41224
1.82351
2.26614
2.55691
2.66352
2.64855
2.64424
2.86631
3.60905
5.16286
7.66003
10.9322
14.4881
17.665
19.9049
21.0166
21.2762
21.2991
21.7402
22.9787
24.9541
27.2394
29.3034
30.8163
31.8266
32.715
33.954
35.8059
38.1271
40.3857
41.8882
42.1001
40.9003
38.6407
35.9829
33.5943
31.8536
30.7113
29.7716
28.552
26.7866
24.6122
22.5304
21.1504
20.8303
21.404
22.1497
22.0524
20.2627
16.5436
11.4773
6.30454
2.43596
0.847238
1.63948
3.98581
6.50591
7.9015
7.55201
5.78248
3.67325
2.50642
3.12269
5.50377
8.77969
11.6477
12.9894
12.3837
10.2759
7.73897
5.95662
5.68472
6.93811
9.0328
10.9425
11.7902
11.247
9.66746
7.91317
6.95707
7.44526
9.40545
12.2204
14.8716
16.348
16.0496
14.0236
10.9406
7.82445
5.64822
4.96023
5.69113
7.21726
8.65029
9.22771
8.63527
7.12047
5.34866
4.07165
3.76953
4.44288
5.66001
6.83243
7.56668
7.8918
8.22396
9.07735
10.686
12.7705
14.6183
15.4652
14.978
13.5444
12.1608
11.9283
13.413
16.2395
19.1936
20.8299
20.2782
17.7838
14.6297
12.429
12.1569
13.4988
14.9597
14.756
12.0227
7.59587
3.79218
3.14953
6.7548
13.1625
18.7309
19.4829
13.6811
3.7106
-4.00835
-1.46541
17.0072
51.1472
93.448
131.118
150.769
143.871
110.519
59.7061
5.93364
-36.3505
-58.0076
-57.9259
-42.2525
-20.8435
-2.80917
6.79154
7.87524
3.93233
-0.57846
-2.57348
-1.39131
1.63324
4.47793
5.73267
5.22178
3.79903
2.63726
2.51909
3.50322
5.04484
6.39228
6.99191
6.70962
5.82364
4.85916
4.37125
4.7571
6.13861
8.33189
10.9098
13.3474
15.2096
16.311
16.7775
16.9787
17.3661
18.297
19.9273
22.2082
24.9607
27.9642
31.0089
33.9024
36.463
38.5353
40.0339
40.9833
41.5109
41.7794
41.8924
41.8365
41.5056
40.7976
39.7181
38.4123
37.0908
35.8847
34.7267
33.3413
31.3698
28.565
24.9447
20.8146
16.6457
12.8786
9.76426
7.32085
5.41158
3.87676
2.6332
1.68958
1.09029
0.846048
0.908185
1.20189
1.68497
2.38013
3.35158
4.64168
6.21606
7.96027
9.73297
11.437
13.0537
14.6108
16.0996
17.3995
18.2671
18.4137
17.641
15.9685
13.6848
11.2918
9.35696
8.32888
8.38521
9.36769
10.831
12.1942
12.9469
12.8387
11.9731
10.7576
9.71921
9.26037
9.47399
10.1161
10.759
11.0445
10.8921
10.5328
10.3395
10.5545
11.0897
11.5397
11.422
10.5028
8.99992
7.51394
6.70827
6.92312
7.96776
9.23441
10.0772
10.2242
9.95732
9.93561
10.7638
12.5809
14.9403
17.0716
18.3651
18.7622
18.784
19.1545
20.2476
21.7206
22.602
21.8252
18.9041
14.3283
9.40101
5.5767
3.67717
3.4729
3.91574
3.90851
3.13117
2.35404
2.94615
5.79888
10.3322
14.3341
14.9877
10.7336
2.98582
-3.43573
-1.78361
13.5743
43.8534
83.9894
123.432
149.629
152.873
130.406
87.8569
37.2579
-7.53158
-35.9856
-44.4071
-36.365
-20.1475
-4.65876
4.25404
5.48199
1.91394
-1.96187
-2.68501
0.620469
6.31106
11.5618
14.0573
13.1091
9.7409
5.89506
3.33281
2.84162
4.07993
5.99708
7.49142
7.93068
7.32182
6.14701
5.04123
4.50824
4.78535
5.85257
7.51481
9.48829
11.4677
13.1887
14.502
15.4428
16.2539
17.32
19.0173
21.5363
24.7662
28.3116
31.6469
34.3415
36.2458
37.5443
38.6449
39.9561
41.6617
43.6022
45.3255
46.2866
46.1074
44.7739
42.6784
40.4764
38.8156
38.053
38.0845
38.368
38.1322
36.6825
33.6722
29.2247
23.8663
18.316
13.2384
9.06969
5.97372
3.91249
2.76262
2.40252
2.73139
3.63214
4.92272
6.3388
7.56406
8.29576
8.32075
7.58252
6.22726
4.6151
3.27333
2.77019
3.51739
5.56262
8.47675
11.4325
13.4949
14.0246
13.0041
11.0971
9.36986
8.78363
9.70854
11.7251
13.8376
15.0017
14.6838
13.1453
11.2864
10.1332
10.2534
11.4287
12.7708
13.2196
12.1497
9.75331
6.98729
5.1119
5.06017
6.96336
10.0701
13.0921
14.7957
14.5461
12.5456
9.66956
7.00505
5.33558
4.83093
5.08254
5.44067
5.45096
5.13944
4.98264
5.57942
7.21596
9.58702
11.8587
13.0672
12.649
10.8049
8.47712
6.9235
7.10283
9.19786
12.5367
15.9568
18.4132
19.4965
19.5846
19.5541
20.2289
21.8779
24.0418
25.7771
26.1765
24.8737
22.2597
19.2931
17.0046
15.9586
15.9604
16.1788
15.6455
13.8855
11.3327
9.25085
9.10623
11.6419
16.1425
20.3984
21.6115
17.9999
10.3767
2.77823
1.49075
12.5439
38.5853
76.5923
117.741
149.901
161.978
148.365
111.481
61.177
11.1459
-26.1393
-43.7713
-42.232
-28.1087
-10.5578
2.69696
8.03747
6.34503
1.35781
-2.85558
-3.94252
-1.9626
1.29822
3.72928
4.12543
2.64111
0.405939
-1.30001
-1.76486
-1.09172
0.0515579
0.926474
1.13391
0.736761
0.100867
-0.385286
-0.52506
-0.361932
-0.0821289
0.13084
0.192997
0.128694
0.0162007
-0.0751388
-0.11499
-0.104392
-0.0538526
0.0268432
0.120476
0.191123
0.190645
0.0885823
-0.0927838
-0.269262
-0.331356
-0.215277
0.0342188
0.259217
0.264379
-0.0565469
-0.617892
-1.14214
-1.29341
-0.892299
-0.0900028
0.627838
0.662892
-0.322323
-2.06781
-3.63189
-3.67822
-1.06521
4.51706
12.1931
20.0663
25.8973
28.0205
26.0709
21.1504
15.3223
10.6629
8.3326
8.131
8.75505
8.61089
6.73887
3.3563
-0.263091
-2.48951
-2.22192
0.525166
4.63557
8.47063
10.6779
10.7946
9.3553
7.50272
6.36018
6.51349
7.84139
9.7121
11.3713
12.2875
12.3012
11.5713
10.4212
9.20135
8.22205
7.73001
7.87505
8.64594
9.81505
10.9602
11.6001
11.4046
10.3775
8.90086
7.59765
7.06154
7.58049
8.98757
10.7136
12.0208
12.3137
11.3932
9.54441
7.41926
5.76155
5.08601
5.4498
6.42356
7.2894
7.38909
6.46458
4.8179
3.1909
2.40231
2.91445
4.55864
6.58265
8.01925
8.1949
7.10621
5.44776
4.25952
4.37421
5.966
8.45504
10.8284
12.2025
12.3093
11.625
11.06
11.3836
12.7169
14.4035
15.3541
14.6858
12.2866
8.96124
6.04102
4.66107
5.12445
6.74907
8.31926
8.88628
8.40974
7.785
8.16525
9.96868
12.2588
13.0686
10.7076
5.41588
0.319384
0.818942
12.3023
37.0602
71.9497
108.242
134.172
139.364
119.265
77.5101
25.0047
-24.012
-57.2393
-68.6364
-59.989
-39.2342
-16.5438
-0.0756494
6.74555
5.47111
0.693712
-2.81488
-2.41592
1.60595
6.85358
10.5228
10.985
8.47404
4.69122
1.72413
0.956464
2.53114
5.54247
8.71786
11.131
12.5545
13.3325
13.954
14.656
15.3175
15.6793
15.6947
15.7294
16.4357
18.3501
21.4704
25.1083
28.1635
29.7087
29.562
28.5014
27.9553
29.2986
33.1183
38.8492
44.9932
49.8244
52.2183
52.1764
50.7792
49.6007
49.8958
51.9778
55.0921
57.8261
58.8273
57.4573
54.0639
49.7621
45.8603
43.2332
41.9487
41.3058
40.2359
37.8439
33.8192
28.5349
22.822
17.5657
13.3411
10.2618
8.07774
6.42762
5.07913
4.0221
3.38587
3.26288
3.57125
4.05242
4.40483
4.46348
4.30554
4.21084
4.49818
5.3354
6.63519
8.09413
9.34712
10.1459
10.4655
10.4914
10.5097
10.7676
11.3749
12.2788
13.3052
14.2324
14.8643
15.0872
14.9044
14.4458
13.945
13.6752
13.8543
14.5452
15.5963
16.6592
17.2897
17.1062
15.9431
13.9384
11.5093
9.21518
7.55186
6.75792
6.71846
7.02204
7.16197
6.79999
5.96323
5.05909
4.67403
5.23985
6.74199
8.64767
10.1286
10.4877
9.5654
7.8838
6.41837
6.09616
7.29349
9.62725
12.1762
14.0156
14.749
14.7067
14.6723
15.2937
16.5499
17.6374
17.4004
15.0793
10.9253
6.26185
2.88037
2.0737
3.86581
6.93335
9.32677
9.60675
7.71447
5.00072
3.3264
3.7471
5.63742
6.94349
5.61171
1.46651
-2.63269
-1.31101
11.0081
36.9253
73.6277
112.654
142.366
152.281
137.407
100.578
51.6428
3.81598
-31.2038
-47.2103
-44.954
-30.7234
-12.9964
1.14162
8.25778
8.80512
5.6786
2.14423
0.25094
0.334674
1.52978
2.7149
3.2547
3.19655
2.99121
3.06686
3.57605
4.42555
5.46932
6.6544
7.99413
9.41484
10.6402
11.2551
10.9506
9.79692
8.34165
7.42481
7.78082
9.64679
12.6123
15.8152
18.3872
19.907
20.6096
21.2424
22.6541
25.3472
29.2322
33.6978
37.9341
41.3205
43.6756
45.2629
46.5863
48.1051
50.0166
52.191
54.2539
55.7515
56.3163
55.7792
54.2071
51.8654
49.121
46.3036
43.5696
40.8242
37.7554
33.9887
29.3117
23.8617
18.1733
13.0381
9.22691
7.19506
6.90815
7.8611
9.27118
10.3476
10.5229
9.57405
7.62599
5.08075
2.51564
0.569995
-0.185766
0.600757
2.92917
6.39046
10.2498
13.6741
16.0303
17.1255
17.2653
17.0884
17.2479
18.0925
19.5099
21.0112
22.0063
22.1201
21.3751
20.1473
18.9285
18.042
17.4843
16.9839
16.2392
15.1797
14.0787
13.4322
13.6629
14.826
16.4996
17.9451
18.461
17.7386
16.0199
13.9695
12.3312
11.5611
11.6296
12.0884
12.3439
11.9754
10.9287
9.49817
8.13526
7.2071
6.83978
6.91686
7.21151
7.56016
7.97135
8.60692
9.64672
11.1149
12.7733
14.16
14.7778
14.3531
13.0304
11.3803
10.1857
10.0887
11.2775
13.3903
15.7122
17.5768
18.7509
19.5712
20.7264
22.7849
25.7338
28.8153
30.7964
30.5619
27.7168
22.8561
17.325
12.5749
9.46291
7.89032
6.99983
5.83035
4.04007
2.23057
1.60351
3.07399
6.34456
9.57865
10.0798
5.84899
-2.68361
-11.7523
-14.9539
-5.6231
19.9402
59.8416
105.98
146.101
167.96
163.955
134.254
86.9582
35.1618
-7.84833
-33.217
-39.0554
-30.0126
-14.3742
-0.218972
7.60574
8.53699
5.29304
1.67936
0.458602
2.2619
5.82016
9.0939
10.5285
9.76939
7.5925
5.26175
3.77472
3.41575
3.7847
4.18535
4.09216
3.42999
2.55183
1.98121
2.10007
2.96326
4.32657
5.8469
7.32158
8.82097
10.6359
13.07
16.1998
19.7472
23.1574
25.8586
27.578
28.5418
29.4363
31.1245
34.2413
38.8605
44.4013
49.8297
54.0663
56.4177
56.8358
55.8967
54.5218
53.579
53.5435
54.3585
55.5331
56.4081
56.4516
55.448
53.5111
50.9369
47.9949
44.775
41.1723
37.0112
32.2313
27.0153
21.774
16.9819
12.9531
9.69485
6.94028
4.36269
1.85236
-0.317905
-1.56831
-1.32345
0.596269
3.73294
7.07182
9.44772
10.0903
9.02183
7.07738
5.51128
5.37528
6.98623
9.76083
12.5055
14.0118
13.6532
11.6845
9.10691
7.18086
6.83613
8.25934
10.8352
13.4423
14.9505
14.6967
12.7499
9.87859
7.2503
5.98555
6.73023
9.39695
13.17
16.7799
18.9569
18.8998
16.5782
12.7426
8.63117
5.49502
4.13906
4.67146
6.55125
8.88506
10.8145
11.8134
11.7835
10.9558
9.6979
8.35238
7.17738
6.37271
6.11737
6.55
7.68477
9.32462
11.0563
12.3696
12.8598
12.4084
11.2373
9.79966
8.56907
7.84516
7.67917
7.93871
8.44227
9.05839
9.70828
10.2998
10.6864
10.7331
10.4798
10.292
10.8464
12.8748
16.7441
22.0848
27.7119
31.9572
33.3183
31.1425
26.0106
19.6165
14.1762
11.6243
12.9508
17.9426
25.3901
33.6008
40.9498
46.2344
48.7493
48.1692
44.4194
37.6819
28.5558
18.2426
8.55709
1.62099
-0.737547
2.32529
10.1913
20.7644
30.9797
37.6784
38.5448
32.8123
21.5673
7.64434
-4.81731
-11.0958
-6.87806
10.5225
40.9248
80.4442
121.598
154.716
170.547
163.328
133.186
86.769
35.6124
-7.36108
-31.9832
-34.0705
-16.5127
12.1629
41.1471
61.2992
68.1996
63.2242
52.3514
43.2754
42.0138
50.3655
65.2261
80.0323
87.7293
83.9961
69.3071
48.8802
30.4915
21.1249
23.9833
37.2259
54.9706
70.0131
76.9321
74.1617
64.2224
52.25
43.7193
42.4512
49.6183
63.8343
81.9311
99.9372
113.984
121.123
120.088
111.842
99.5716
87.8297
80.9124
81.0828
87.5177
96.6387
103.805
105.583
101.443
93.9893
87.6446
86.5038
92.4878
104.656
119.836
134.042
143.869
147.289
143.773
134.047
119.816
103.557
88.1671
76.2947
69.4153
67.0868
66.914
65.4549
59.7577
48.7747
33.886
18.2311
5.21657
-2.97434
-6.0932
-5.48934
-3.08861
-0.400578
1.87264
3.54989
4.42007
3.98058
1.72783
-2.23261
-6.81256
-10.2589
-11.1349
-9.40153
-6.83391
-6.31746
-10.2439
-18.8477
-29.489
-37.4502
-37.9928
-28.686
-10.7954
11.0324
30.6811
43.1394
46.4729
42.2713
34.4558
27.1642
22.8455
21.4895
21.2448
19.9238
16.4717
11.589
7.24243
5.44563
7.06803
11.3547
16.3802
20.1158
21.4674
20.7187
19.1985
18.4424
19.3652
21.8814
25.094
27.8384
29.2207
28.8825
26.9621
23.9123
20.3584
17.0512
14.8159
14.3668
15.9812
19.2116
22.8978
25.6194
26.452
25.6266
24.6458
25.6524
30.267
38.4748
48.2091
55.9797
58.3558
53.6261
42.7899
29.3095
17.6489
11.2575
10.9854
14.7624
18.7644
19.5216
15.878
9.71232
4.92074
5.10275
11.1834
20.3974
27.449
27.4955
19.4621
7.76335
1.11963
8.61519
34.7297
75.8905
120.595
153.484
161.702
140.594
95.9473
41.6237
-6.28627
-35.9767
-44.036
-35.4224
-19.7276
-5.95669
1.43179
3.43849
4.40765
8.49873
16.9051
27.2755
35.371
37.7272
33.6767
25.6557
17.815
13.8881
15.5258
21.8518
30.2085
37.4661
41.1624
40.0789
34.3053
25.0765
14.5708
5.60708
1.04789
2.86969
11.2048
23.9107
37.1188
46.7307
50.2327
47.8805
42.5329
38.1219
37.5376
41.103
46.5326
50.4343
50.5028
47.1047
43.2671
42.995
48.8348
60.094
72.8087
81.5855
82.3824
74.7283
62.151
50.5371
45.2561
48.5353
58.4196
69.8005
76.92
76.0407
66.975
52.8323
38.2856
27.3506
21.7932
20.8239
22.0116
22.7676
21.5822
18.4722
14.5902
11.3729
9.74925
9.78424
10.8277
11.9738
12.5319
12.2804
11.4415
10.4635
9.76454
9.56474
9.85435
10.4657
11.1758
11.777
12.1015
12.0336
11.5578
10.8508
10.3524
10.7043
12.4831
15.7867
19.8981
23.3119
24.2865
21.7739
16.2665
9.989
6.11881
7.25298
13.868
23.6865
32.4869
36.1157
32.7167
23.9444
14.3947
9.43883
12.5538
23.5556
38.6661
52.3388
59.8307
59.1672
51.5776
40.3823
29.1287
20.0557
13.6005
8.95853
5.11806
1.64833
-1.16942
-2.77981
-2.93103
-1.9605
-0.633252
0.296631
0.476017
0.0532217
-0.525744
-0.845897
-0.755105
-0.383585
0.00801447
0.216221
0.195815
0.0391641
-0.116247
-0.174233
-0.113739
0.0257196
0.175438
0.26283
0.231912
0.0699635
-0.16418
-0.338009
-0.298333
0.0262663
0.530271
0.925088
0.868556
0.187724
-0.937129
-1.97848
-2.31931
-1.65899
-0.322895
0.775621
0.599222
-1.32236
-4.38894
-7.0135
-7.39595
-4.64489
0.423874
5.44481
7.78141
6.40018
3.29501
3.43498
12.8613
35.5674
70.6233
111.137
145.92
163.424
156.347
124.813
76.6505
24.5831
-18.4117
-43.5421
-48.626
-37.7374
-18.6199
0.705281
14.6178
20.981
20.6513
16.1148
10.1062
4.75522
1.3279
0.311726
1.56023
4.39477
7.74119
10.4096
11.5012
10.7726
8.75322
6.52494
5.26779
5.80079
8.32291
12.4166
17.2266
21.677
24.6605
25.2352
22.8982
17.9166
11.5523
5.94688
3.53339
6.09736
13.8757
25.1787
36.8462
45.4574
48.8015
46.9202
42.1778
38.2561
38.4957
44.3478
54.6735
66.2443
75.2277
78.9706
77.2412
72.3422
68.0316
67.7492
72.9675
82.4267
92.5967
99.1484
98.7624
90.4765
76.0153
59.0246
43.6159
32.8871
28.0173
28.2114
31.3614
35.0172
37.2197
36.9235
34.0019
29.0095
22.9111
16.8737
12.0834
9.49954
9.53283
11.7753
14.9926
17.5196
17.983
16.0326
12.6616
9.84404
9.57145
12.7426
18.5202
24.5821
28.2229
27.7669
23.5153
17.6625
13.1657
12.1627
14.8198
19.2806
22.7696
23.2273
20.53
16.5671
14.1123
15.1359
19.5516
25.1557
28.8334
28.3689
23.8319
17.7301
13.7916
14.9899
21.841
31.8685
40.5421
43.2683
37.5128
24.0889
7.03545
-7.87772
-15.4056
-12.938
-1.61318
14.0403
27.8492
34.4929
31.7659
21.6295
9.50097
1.95217
3.73357
15.4538
33.0641
49.5281
58.0136
55.135
42.6511
26.7162
14.9783
12.9238
21.2811
35.7804
49.3676
55.7237
52.294
41.3322
28.5174
19.9499
19.1006
25.23
33.9659
39.6301
38.0819
28.6906
14.5655
1.04762
-6.73785
-6.10258
2.20021
14.5832
26.5113
34.7718
39.0631
42.1317
48.3304
61.2133
81.283
105.016
125.755
136.183
131.32
110.67
78.5474
42.4505
10.3113
-12.1009
-22.529
-21.9888
-13.4303
-0.235812
14.6671
28.895
40.3191
47.0179
47.78
42.8978
34.5906
26.497
22.2361
23.7094
30.1157
38.3454
44.6414
46.6397
44.6219
41.2351
39.8236
42.3461
48.1098
54.0821
56.6146
53.5853
45.7232
36.3524
29.6911
28.6483
33.3147
40.9447
47.4089
49.341
45.8768
39.1334
33.2271
32.3264
38.6663
51.4374
67.0466
80.6362
88.188
88.2731
82.6403
75.3403
70.7605
71.4901
77.0765
84.3364
89.1121
88.579
82.8549
74.9751
69.1645
68.3044
72.014
76.5026
76.4064
67.7111
50.1994
28.058
8.22951
-2.70521
-1.55297
10.0592
26.4996
40.7024
47.175
44.0287
33.2413
19.2931
7.04926
-0.0633016
-0.901607
3.58938
11.1984
19.3581
25.8152
29.0336
28.4661
24.7559
19.7401
16.0328
16.1094
21.1447
30.1615
40.0618
46.7527
46.9878
40.0556
28.3819
16.5848
9.31418
8.91213
14.1251
20.6334
23.2429
18.6792
7.53874
-5.68814
-14.6516
-14.2954
-3.56581
13.7238
30.3926
39.1004
35.7426
21.3853
1.78848
-15.2608
-23.5205
-21.0531
-10.8763
0.7417
7.43639
5.76674
-3.35458
-15.4299
-24.8353
-27.6461
-23.3898
-14.9072
-6.50329
-1.43764
-0.101574
0.162202
3.50412
13.0715
28.852
46.996
61.0682
64.7599
54.8738
33.1923
6.27913
-16.8433
-28.2211
-24.184
-6.80527
17.0751
38.8322
51.6685
53.1998
45.882
35.239
26.9268
24.1744
26.8092
32.1203
36.8076
38.7648
37.7292
34.6555
30.5141
25.5243
19.4483
12.7478
7.70353
8.48687
19.7467
44.2085
80.4999
122.474
160.637
185.241
189.746
173.156
140.21
99.4528
60.0716
28.902
8.75908
-1.42803
-5.0428
-5.70368
-5.69142
-5.49433
-4.44937
-1.91017
1.82778
5.39595
7.06582
5.84987
2.2954
-1.56241
-3.14669
-0.713098
5.60295
13.6871
20.4208
23.2625
21.6077
17.1817
13.2128
12.7823
17.1956
25.2213
33.6031
38.5872
37.6923
30.8353
20.2781
9.47541
1.45546
-2.43163
-2.802
-1.50716
-0.369346
-0.122305
-0.13545
0.976385
4.27173
9.60972
15.5315
19.9872
21.492
20.0276
17.1449
15.1836
16.0376
20.1624
26.3729
32.5242
36.6625
37.9908
37.1367
35.636
34.9931
35.8746
37.852
39.7502
40.3171
38.8118
35.2392
30.2159
24.6483
19.43
15.2515
12.4902
11.1221
10.6711
10.3027
9.14973
6.81556
3.81197
1.61611
2.16629
6.91936
15.8951
27.2379
37.6392
43.554
42.7233
35.3044
24.0315
13.2466
7.15057
8.00787
15.1076
24.9992
32.9842
35.2766
30.885
22.3086
14.6064
13.1251
20.85
36.6299
55.2287
69.3521
72.8435
63.6016
44.8129
23.8278
9.11773
6.67888
17.5228
37.3775
58.667
73.786
78.1423
71.6539
58.1925
43.4436
32.3051
27.0178
26.7336
28.4876
28.9235
25.8914
19.2395
10.5911
2.38091
-3.29817
-5.5023
-4.61009
-1.90601
1.13065
3.4597
4.76984
5.36593
5.79562
6.45753
7.39804
8.36818
9.05559
9.31419
9.23383
9.00879
8.7076
8.12893
6.88958
4.7412
1.93557
-0.631228
-1.68633
-0.216249
3.83736
9.25901
13.9236
15.7848
14.0191
9.65478
5.20817
3.37692
5.44658
10.3626
15.1699
16.7881
14.2473
10.0739
9.80137
19.5241
42.5355
76.7496
114.395
144.417
156.682
146.113
114.874
71.6196
28.1887
-4.74898
-21.2205
-21.3235
-10.174
4.79712
16.8815
22.2554
20.6426
14.5608
7.73743
3.43853
3.30754
7.00579
12.6304
17.6457
19.9383
18.6022
14.1795
8.30183
2.91692
-0.537146
-1.63843
-0.9599
0.42028
1.5854
2.25884
2.85383
4.10232
6.50381
9.9222
13.5576
16.2979
17.2415
16.0998
13.2762
9.61189
5.97633
2.94433
0.72184
-0.690893
-1.25599
-0.764265
1.09673
4.53501
9.47098
15.5204
22.1563
28.9212
35.5194
41.7136
47.1182
51.0975
52.9339
52.2381
49.3572
45.4591
42.1239
40.5826
41.0135
42.3454
42.7589
40.6603
35.5883
28.5131
21.3309
15.8334
12.7618
11.503
10.5982
8.73286
5.59175
2.05778
-0.346973
-0.414176
1.99348
5.82314
9.38631
11.223
10.7653
8.46547
5.40692
2.70955
1.0935
0.781273
1.65582
3.44574
5.76885
8.0588
9.55485
9.51538
7.62407
4.34159
0.897723
-1.20074
-0.946032
1.55959
5.08387
7.93709
8.99356
8.44166
7.74351
8.74437
12.4265
18.0929
23.5764
26.462
25.6493
22.2781
19.3354
20.0299
25.8034
35.1699
44.1764
48.3576
45.1475
35.3724
22.9209
12.731
8.22524
9.66782
14.3794
18.6378
20.0847
19.1672
18.7469
22.1461
30.8562
43.3297
55.5986
63.3409
64.1562
58.7306
50.294
42.811
39.0467
39.5934
43.2242
48.079
52.7474
56.5655
59.148
59.8059
57.5768
52.0587
44.4799
38.0348
36.8292
43.6877
57.9987
75.0672
87.7946
90.2007
81.0774
65.688
54.2237
57.3587
80.8536
121.859
168.919
205.965
218.664
200.303
154.597
94.204
35.7155
-6.6075
-25.6473
-22.9449
-6.66805
12.6596
26.5623
31.2929
27.9893
20.7611
14.0076
10.3569
10.0275
11.5502
13.1287
13.7557
13.5371
13.238
13.5042
14.3137
14.9732
14.5927
12.689
9.53873
6.09467
3.55171
2.82833
4.22867
7.40694
11.5817
15.8493
19.4562
21.969
23.3482
23.949
24.4434
25.6411
28.2123
32.3883
37.7753
43.4078
48.0729
50.7978
51.2861
50.0922
48.4348
47.7228
49.0044
52.5816
57.9435
64.0166
69.5894
73.7128
75.9173
76.1994
74.8423
72.1967
68.5445
64.0951
59.0836
53.8708
48.9406
44.7435
41.4352
38.655
35.519
30.9358
24.1836
15.5025
6.35772
-0.886798
-3.87797
-1.42125
5.70017
14.7421
21.996
24.3964
20.9814
13.4333
5.33746
0.457425
0.870261
5.93428
12.6545
17.2796
17.2966
12.7617
6.25274
1.47109
1.24388
5.99657
13.5022
20.0236
22.2275
18.8556
11.293
2.77221
-3.32775
-5.17032
-3.25234
0.0926134
2.17645
1.59661
-0.878143
-2.68401
-0.923955
5.86695
16.6301
28.0097
35.8382
37.1298
31.527
21.4254
10.7162
2.84695
-0.727347
-0.871282
0.24376
0.833152
0.833708
2.07644
7.20312
17.987
34.0703
52.8816
70.8009
84.9239
94.4431
100.897
107.169
115.797
127.488
140.588
151.769
157.566
156.037
147.785
135.888
124.784
118.59
119.55
127.273
139.027
150.938
159.521
162.847
160.888
155.016
147.121
138.949
132.078
128.379
130.372
140.799
161.186
189.956
221.23
245.444
252.136
234.066
190.866
130.336
66.3961
14.2876
-15.0055
-18.6581
-2.49912
22.0315
42.9559
52.4909
49.3965
38.1801
25.9357
18.6045
18.4671
23.8236
30.6151
34.8454
34.4701
29.9316
23.3501
17.0619
12.3943
9.27297
6.70518
3.7049
0.0602216
-3.47642
-5.62245
-5.32538
-2.4051
2.26667
7.13159
10.6558
12.0255
11.4852
10.1617
9.46385
10.358
12.8744
16.0945
18.6305
19.3596
18.0362
15.4497
13.0207
12.0238
12.8416
14.6682
15.8679
14.8467
11.0025
5.2349
-0.308511
-3.18534
-1.8653
3.42108
10.6542
16.8756
19.5217
17.587
12.0394
5.28776
-0.0120204
-2.19512
-1.25111
1.38647
3.75329
4.43971
3.25981
1.1783
-0.400656
-0.52861
0.739772
2.4502
3.41104
2.99361
1.57634
0.358428
0.648787
3.05165
7.03606
11.1553
13.8044
14.0894
12.3155
9.81764
8.22711
8.58525
10.7887
13.6572
15.566
15.2826
12.5615
8.20974
3.63444
0.154204
-1.55729
-1.64046
-0.811686
0.0925569
0.522257
0.381167
-0.0729911
-0.478572
-0.601944
-0.433467
-0.132359
0.108355
0.179996
0.0974457
-0.0419245
-0.135341
-0.134775
-0.0606199
0.0269579
0.0725854
0.0577417
0.00547345
-0.0395042
-0.0407446
0.00698163
0.0733698
0.109056
0.0751878
-0.0286059
-0.153722
-0.219174
-0.152206
0.064185
0.362238
0.600668
0.621154
0.330841
-0.229013
-0.872572
-1.34192
-1.44594
-1.20167
-0.887712
-0.939224
-1.69006
-3.0734
-4.47072
-4.88169
-3.44234
-0.0885205
4.03318
6.81373
6.23554
1.91377
-3.63702
-4.90529
5.01878
31.4201
74.6638
128.253
179.563
213.497
217.923
188.685
131.936
62.53
-1.05701
-43.2467
-56.6083
-43.716
-15.0408
15.9446
38.1581
46.5197
42.5445
32.1622
22.18
17.1759
18.1024
22.8747
28.2582
31.8863
33.3843
34.1688
36.2059
40.4957
46.1338
50.4738
50.3575
43.8391
31.5443
16.9184
5.09835
0.804442
6.1767
19.606
36.2141
49.8716
55.865
52.9465
43.7521
33.3667
26.7586
26.3933
31.2468
37.6894
41.7117
41.2506
37.3436
33.5069
33.7159
40.1288
51.7958
65.0255
75.1527
78.718
74.9085
65.5916
54.0712
43.3606
34.923
28.4571
22.6564
16.35
9.31761
2.3723
-3.20642
-6.44573
-7.16921
-5.96504
-3.74267
-1.20986
1.41298
4.3237
7.8249
11.9924
16.513
20.748
23.9571
25.5684
25.3968
23.7518
21.398
19.3513
18.5344
19.3957
21.6616
24.3877
26.3518
26.6422
25.143
22.63
20.3787
19.4701
20.1804
21.8182
23.1317
23.0671
21.4361
19.0887
17.4613
17.7407
20.1108
23.5143
26.0819
26.0165
22.4842
16.0679
8.57534
2.31331
-0.819436
-0.0210168
4.20477
10.3459
16.505
21.072
23.2048
22.9955
21.3299
19.5418
18.9874
20.6499
24.8497
31.113
38.2392
44.5854
48.534
49.0281
45.9833
40.3795
33.9285
28.4033
24.8996
23.3833
22.7739
21.5567
18.6334
13.9696
8.69321
4.5865
3.24296
5.33167
10.3228
16.7465
22.767
26.7429
27.5632
24.7904
18.7908
10.9679
3.96221
1.45973
7.28714
23.8351
50.372
82.1495
111.068
128.03
126.234
104.055
66.164
22.2306
-16.349
-40.3657
-45.7343
-34.3212
-12.5152
11.6318
31.3587
43.072
46.6341
44.3306
39.283
34.1129
30.3156
28.3286
27.9571
28.7747
30.3015
32.0089
33.323
33.7561
33.1311
31.7352
30.2384
29.3571
29.4336
30.1943
30.8747
30.678
29.3095
27.2492
25.5592
25.3006
26.8991
29.8565
33.0215
35.2868
36.294
36.686
37.7002
40.3098
44.4327
48.7431
51.29
50.6328
46.8483
41.7667
38.1938
38.4609
43.0677
50.202
56.4809
58.6067
55.1059
47.2351
38.538
33.2225
34.1359
41.3296
51.9153
61.2836
65.1003
61.1484
50.1925
35.54
21.5845
12.0518
8.72676
11.1318
17.1403
24.0943
29.8544
33.3613
34.619
34.3016
33.2998
32.4217
32.2743
33.2098
35.2338
37.8989
40.3234
41.4572
40.5586
37.6456
33.6171
29.884
27.648
27.2268
27.852
28.1132
26.8216
23.7833
19.9914
17.0918
16.4235
18.2093
21.3848
24.1647
24.9941
23.3151
19.7255
15.5002
11.8381
9.31866
7.85907
7.0949
6.83414
7.22976
8.56699
10.8725
13.6944
16.2744
18.0278
18.9921
19.8868
21.6757
24.8726
29.0396
32.8465
34.7137
33.6836
29.9898
24.9599
20.2889
17.1178
15.4835
14.4791
13.0155
10.6858
8.16131
6.84177
7.97309
11.8084
17.3807
23.0625
27.5539
30.6187
33.0227
35.6602
38.4668
39.9761
38.0647
31.6632
22.4497
15.2896
16.7073
31.7561
60.7181
97.4571
130.651
147.76
140.154
107.049
56.3595
1.93251
-41.6597
-64.4634
-64.322
-46.6818
-21.4207
1.60803
16.2424
21.4462
20.2919
17.4252
16.4717
18.5924
22.6067
26.262
27.7641
26.7406
24.266
22.1117
21.7329
23.525
26.6652
29.5358
30.4836
28.568
23.9936
18.0606
12.6507
9.44858
9.22012
11.4815
14.7453
17.2706
17.971
17.0104
15.7333
15.9152
18.706
23.8525
29.6746
33.87
34.7505
32.2364
28.042
24.9116
25.286
30.0917
38.2717
47.2753
54.2265
57.1654
55.7778
51.3306
45.9364
41.5538
39.1812
38.5447
38.3353
36.8467
32.7507
25.728
16.72
7.67344
0.81556
-2.29517
-1.53814
1.58979
4.57764
5.09882
2.25637
-2.78968
-7.22979
-7.93908
-3.10317
6.71629
18.6754
28.8928
34.2132
33.5768
28.3187
21.3281
15.6121
13.066
14.0299
17.6683
22.7331
28.1366
33.0428
36.623
37.9025
36.0189
30.8238
23.3807
15.8554
10.655
9.20869
11.13
14.3699
16.3897
15.7201
12.9474
10.4531
10.9677
15.7592
23.564
30.988
34.2537
31.3531
23.3809
14.2424
8.82514
10.5721
19.7255
33.1423
45.7482
52.8586
52.2076
44.7437
33.929
24.0109
18.1636
17.344
20.2628
24.3148
26.915
26.601
23.4731
18.8924
14.6775
12.2074
11.8282
12.7954
13.7529
13.5143
11.765
9.30505
7.64281
8.06614
10.6529
13.829
14.9164
11.6351
3.93163
-4.87398
-8.52025
-0.051662
24.8327
64.8088
111.928
153.467
176.214
171.559
139.152
87.4396
30.6855
-16.2922
-43.4153
-48.4334
-36.644
-17.6555
-0.892883
8.05195
8.75384
4.75941
0.863874
0.429763
4.03442
9.84661
15.1798
18.1572
18.5604
17.5565
16.6857
16.8533
17.9383
19.1488
19.764
19.701
19.5329
20.0013
21.4167
23.3943
25.1124
25.8933
25.6735
25.0131
24.6293
24.7995
25.093
24.6771
23.0288
20.5627
18.685
19.1369
22.9655
29.7544
37.6344
44.1407
47.4569
47.3295
45.1142
42.9294
42.4129
43.8042
45.8603
46.6149
44.5071
39.2304
31.8539
24.2092
17.9383
13.7415
11.2031
9.22548
6.7821
3.5679
0.213989
-2.02282
-1.92544
0.996782
6.14075
11.9569
16.5685
18.587
17.7282
14.9023
11.704
9.55288
8.95389
9.31563
9.45612
8.50439
6.62122
5.02317
5.20488
7.79063
11.7653
14.6955
13.9854
8.53287
-0.207976
-8.52832
-12.1637
-8.58265
1.38437
13.5683
22.2714
23.0124
14.7943
0.691699
-13.5779
-22.3705
-22.7289
-15.5821
-4.99951
4.01479
7.98153
6.41048
1.62645
-2.79151
-4.01766
-1.3561
3.65556
8.32912
10.3998
9.21382
5.94587
2.83306
1.92166
4.02198
8.37966
13.1469
16.3224
16.6395
13.9856
9.23816
3.71771
-1.38438
-5.30836
-7.68225
-8.28862
-6.906
-3.41224
1.87611
7.87322
12.7292
14.3662
11.4366
4.26669
-4.79265
-12.0169
-13.895
-9.01852
0.709393
10.3978
14.2192
8.4663
-5.82712
-22.208
-30.8296
-22.6544
5.90876
50.1604
97.6886
132.513
141.244
118.646
70.1113
9.88458
-44.2723
-77.6914
-83.9083
-66.2367
-35.4012
-4.53119
16.163
22.7972
18.1208
9.01249
2.63554
3.12509
10.1979
20.0252
27.6307
29.4716
24.9553
16.325
7.21488
0.785047
-1.57468
-0.424579
2.54207
5.67991
8.20948
10.2775
12.3844
14.6826
16.6693
17.4781
16.5434
14.1597
11.533
10.263
11.566
15.6989
21.904
28.8518
35.2755
40.4226
44.136
46.6501
48.3479
49.6723
51.1782
53.5374
57.3196
62.5752
68.4853
73.4174
75.5278
73.6953
68.2721
61.1441
54.9364
51.7022
51.7908
53.5579
54.147
50.9748
43.1375
31.9699
20.4385
11.6825
7.47196
7.39582
9.18701
9.99308
7.91255
3.0028
-2.74137
-6.40735
-5.65862
0.0362327
9.03138
18.1624
24.1269
24.9521
20.8823
14.2805
8.58242
6.76063
9.98481
17.0847
25.0686
30.4715
30.9164
26.1669
18.1812
10.1586
5.05963
4.33089
7.44222
12.4084
16.9483
19.6184
20.3185
19.9576
19.5665
19.4509
18.9211
16.757
12.1025
5.21981
-2.37634
-8.50764
-11.3135
-10.078
-5.46824
0.890385
7.20508
12.2113
15.4385
17.017
17.2731
16.438
14.6461
12.147
9.48394
7.41635
6.56393
6.98298
7.98584
8.40144
7.20618
4.19171
0.251773
-2.96002
-3.89873
-2.0781
1.46466
4.55209
5.0014
1.93978
-3.4769
-8.48094
-10.1712
-7.30285
-1.30753
4.25162
5.74988
2.08722
-3.74171
-5.30659
4.27102
28.2667
63.3477
99.4787
123.275
123.554
96.5522
48.2209
-7.67006
-54.8852
-81.0997
-82.3876
-63.8849
-36.5827
-12.0312
2.439
5.87798
2.64215
-0.913784
-0.0474969
6.24749
15.3911
23.1807
26.2871
23.9397
18.0771
12.1093
9.09728
10.315
14.8313
20.1768
23.6551
23.6216
20.1623
14.9297
10.2913
8.22907
9.50276
13.4394
18.4048
22.6868
25.3282
26.485
27.1467
28.4112
30.7588
33.7731
36.4822
38.1052
38.7113
39.327
41.3579
45.641
51.7263
57.898
62.0199
62.7654
60.5008
57.2386
55.5978
57.3101
62.1174
67.7281
70.9105
69.1505
61.9672
51.1638
39.8876
31.0353
25.8888
23.7015
22.4003
19.9417
15.5267
10.0086
5.32256
3.31851
4.6856
8.55488
12.9536
15.8105
15.9449
13.5369
9.90119
6.76483
5.46879
6.48243
9.38911
13.2359
16.989
19.8623
21.4341
21.6171
20.6051
18.8574
17.0753
16.0716
16.4804
18.3924
21.1208
23.307
23.4338
20.5755
15.0308
8.46888
3.41874
2.26125
6.16652
14.4966
24.997
34.7199
41.2493
43.6387
42.6139
39.9734
37.5323
36.1818
35.5565
34.453
31.7309
27.1642
21.7452
17.258
15.3461
16.589
20.1069
23.9333
25.9798
25.0926
21.636
17.2849
14.1236
13.5224
15.3936
18.2286
19.9032
18.8172
14.7477
8.9494
3.45325
-0.0328738
-0.993658
-0.254989
0.649243
0.480325
-0.974536
-2.9224
-4.33753
-4.9789
-5.92044
-9.09054
-15.9022
-25.6754
-34.8381
-37.6336
-28.3398
-4.17336
32.4648
73.63
107.85
123.948
115.23
82.2904
33.2057
-19.0834
-61.2027
-83.8318
-84.4862
-67.5931
-42.0321
-17.3522
-0.32403
6.833
6.09689
1.69431
-2.29362
-3.62907
-2.31915
0.145048
2.04902
2.45947
1.52802
0.120998
-0.847436
-0.937007
-0.307671
0.516901
1.02379
0.982669
0.498084
-0.121799
-0.558913
-0.631023
-0.344209
0.134754
0.554285
0.679296
0.399062
-0.193694
-0.805973
-1.06724
-0.744012
0.0636229
0.888471
1.10706
0.327203
-1.26618
-2.86464
-3.41313
-2.27328
0.202401
2.60543
3.10944
0.593394
-4.33698
-9.09626
-9.98412
-3.92289
9.73352
28.3029
46.4183
58.0847
59.2543
49.6708
33.0334
15.3506
2.28059
-3.22564
-1.83312
3.07773
7.52423
9.04235
7.68694
5.48098
4.78882
6.67435
10.2433
13.3184
13.9603
11.8368
8.55117
6.70395
8.25475
13.2018
19.4203
23.8101
24.1093
20.3104
14.8231
11.236
12.3391
18.5002
27.3088
34.7121
37.0573
32.9713
24.1005
14.3382
7.94866
7.54259
12.9056
21.2209
28.5253
31.6437
29.6516
24.1887
18.5286
15.9139
17.9873
24.0655
31.5606
37.2877
38.9892
36.3358
30.962
25.5828
22.678
23.4008
27.2028
32.2783
36.5214
38.4811
37.8628
35.4133
32.3502
29.7018
27.9021
26.7943
25.9548
25.0895
24.2563
23.8006
24.0656
25.0653
26.3228
26.9862
26.1929
23.5237
19.3281
14.7372
11.2985
10.3434
12.3435
16.5767
21.3268
24.6115
25.1443
23.0469
19.8694
17.7901
18.3237
21.2396
24.4114
24.9104
20.9586
13.7369
7.89337
10.099
25.9802
56.7395
97.1926
136.495
161.635
162.39
135.645
87.0719
29.3688
-22.2581
-55.4454
-64.6513
-52.2688
-26.7037
1.48304
23.6153
35.546
38.1191
35.6446
33.3123
34.7236
40.4938
48.3491
54.5268
55.7919
51.1583
42.5266
33.9074
29.543
31.7921
39.8261
49.8511
56.8328
56.9148
49.3249
36.789
24.2419
16.5159
16.2016
22.7352
33.0563
43.3312
50.7383
54.4148
55.2523
54.9092
54.7616
55.3862
56.7059
58.4841
60.7085
63.6
67.3329
71.7638
76.4194
80.7419
84.368
87.2007
89.2256
90.2649
89.9323
87.8935
84.2581
