-1e-006
-1.1e-005
-3.4e-005
-5.7e-005
-6.1e-005
-3.7e-005
3e-006
1.2e-005
-5.5e-005
-0.000189
-0.000317
-0.000331
-0.000186
3.2e-005
0.00013
-6.9e-005
-0.000549
-0.001033
-0.001121
-0.000585
0.000354
0.000999
0.000468
-0.00185
-0.00595
-0.007739
0.026712
0.070259
0.055021
-0.044824
-0.194446
-0.283353
-0.166231
0.150176
0.425004
0.35312
-0.21308
-0.989762
-1.37337
-0.860394
0.47118
1.72271
1.68715
-0.209207
-3.16358
-5.07225
-3.74058
1.62172
9.56536
16.908
20.4887
19.0668
14.1926
9.30169
7.70163
10.6095
16.4603
21.9457
23.9839
21.4653
15.7656
9.82404
6.51777
7.22762
11.3918
17.0557
22.0814
25.2917
26.9023
28.2554
30.905
35.4178
40.6944
44.2136
43.1762
36.1766
24.4112
11.5878
2.31872
-0.100517
4.48342
12.9374
20.6778
24.3242
23.6587
21.6676
22.4146
28.215
37.769
46.665
50.1226
46.0394
36.4158
26.3263
20.8249
21.9984
27.8195
33.7669
35.9482
33.5693
29.2484
27.0381
29.6286
36.6267
45.0472
51.3775
53.7691
52.769
50.3631
48.1997
46.4844
44.181
40.2753
34.8871
29.4983
26.0138
25.4211
27.2025
29.6392
31.0577
31.0357
30.5682
31.2584
34.0371
38.2339
41.8647
42.9541
41.3554
39.6909
42.6583
54.636
76.7398
104.808
129.785
140.94
130.569
97.8948
50.3362
1.05927
-36.1574
-52.3024
-46.3804
-25.1111
0.776741
21.5038
32.2821
34.457
33.5559
35.4633
42.8763
53.9637
63.5086
66.0092
58.9753
44.5325
28.626
18.3705
18.6738
29.8915
47.4876
63.9452
72.1483
68.7616
56.0211
41.0349
32.5447
36.4379
52.5304
74.3296
92.1201
97.9352
89.7163
72.2039
54.1435
43.5932
44.0557
53.4608
66.17
76.38
80.73
79.1164
74.0717
69.3301
68.5699
74.6541
88.5655
108.265
128.516
142.302
143.975
132.573
113.202
95.1309
87.1182
92.5326
107.408
122.755
129.812
125.092
112.141
99.0581
93.1249
96.2188
103.754
107.603
101.181
83.4506
59.497
37.7083
25.2036
24.3728
32.2133
42.4277
48.8031
47.9963
40.3971
29.1446
18.2486
10.8486
8.21115
9.50346
12.4753
14.6311
14.4968
12.5226
11.1008
13.2765
20.7304
32.1402
43.1295
48.2467
44.0913
31.637
16.3114
5.57383
4.9423
14.8801
30.4389
43.8327
48.6815
43.305
31.3564
19.5797
13.9306
16.4078
24.3533
32.415
35.7859
32.8179
25.5708
18.295
14.8017
16.3726
21.2865
26.1169
27.9127
25.9505
22.0397
19.3631
20.4968
25.7597
32.8962
38.1598
38.346
32.6826
23.445
14.9796
11.5334
15.0337
24.0318
34.2189
40.4395
39.2476
30.6587
18.3325
8.08042
5.1204
11.5604
25.2928
40.7896
51.6285
53.4788
46.0038
32.7681
19.2351
10.0424
6.98336
8.83512
12.73
16.0872
17.8402
18.3976
18.8652
20.0564
22.1829
25.1396
28.8367
33.2635
38.1388
42.4875
44.8927
44.2124
40.269
34.0901
27.4321
21.8996
18.2289
16.2607
15.3058
14.9577
15.3463
17.0468
20.3202
24.4879
27.8875
28.6025
25.6934
20.0509
14.3976
11.9668
14.4162
20.4349
26.0808
27.1918
22.8539
17.4207
19.2902
36.4388
70.8843
115.385
155.049
173.732
161.926
121.81
66.5215
14.1236
-20.6409
-32.1559
-24.6723
-8.23538
7.22255
16.2422
18.766
17.9256
16.9164
16.9792
17.3018
16.4283
13.7213
9.85205
6.5122
5.48846
7.74353
12.9873
19.6561
25.3533
27.6524
25.2269
18.6395
10.4559
4.24228
2.90565
7.1023
14.9003
22.8581
28.0434
29.6563
29.1786
29.2073
31.5619
35.9629
40.3269
42.2052
40.5177
36.468
32.986
33.1263
38.3686
47.767
58.3648
66.6867
70.5707
70.2847
68.3834
68.3316
72.6949
81.6624
92.7857
102.132
106.272
104.012
96.9111
88.2786
81.3033
77.3822
75.588
73.6064
69.3297
62.0813
52.7915
43.2272
34.6828
27.2675
20.164
12.6432
5.0769
-0.845988
-2.94579
0.01573
7.13645
15.328
20.5565
19.8672
13.0755
3.06337
-5.51806
-8.62872
-4.94865
3.51166
12.551
18.0149
17.9576
13.4353
7.67465
4.16146
4.83787
9.26308
15.1581
19.7416
21.0653
18.822
14.241
9.29594
5.82395
4.82093
6.18551
8.99702
11.9723
14.0085
14.5232
13.6683
12.2406
11.3259
11.8062
13.9094
16.9992
19.8908
21.4985
21.4092
20.1813
18.943
18.6098
19.1934
19.757
19.1026
16.7107
13.29
10.3876
9.3485
10.3546
12.226
13.2253
12.3499
10.0912
8.16808
8.31383
10.935
14.7083
17.3403
17.0837
13.9096
9.67434
7.04587
7.89397
12.1951
18.1134
22.9894
24.7695
22.9221
18.464
13.2615
9.13598
7.19692
7.74488
10.4036
14.2591
17.9996
20.1158
19.3619
15.4408
9.61868
4.59287
3.40552
7.83139
17.0906
27.8706
35.7626
37.6207
33.2939
25.7608
19.4136
17.5415
20.3635
25.0516
27.4994
24.7891
17.0233
7.21577
-0.450436
-2.9807
-0.157992
5.36381
9.69972
9.78189
5.13728
-1.92118
-7.64668
-9.00165
-5.50634
0.345391
4.42807
3.65556
-1.55517
-6.6253
-4.61407
10.3022
38.99
75.5171
108.543
125.569
118.139
85.7715
36.517
-16.056
-58.1269
-80.6821
-82.1166
-67.4547
-45.149
-23.05
-5.76555
5.71272
12.4869
15.8546
16.3134
13.9792
9.62778
5.22994
3.31678
5.44516
11.0188
17.4779
21.8056
22.5691
20.841
19.2315
19.9661
23.0798
26.3288
26.8036
23.1582
16.6898
10.7308
8.45941
11.0274
16.9673
23.3112
27.5753
29.1261
29.2224
29.7758
31.9728
35.5681
39.2484
41.7009
42.6187
42.7835
43.4964
45.7429
49.6206
54.3962
59.1111
63.1728
66.6427
69.9024
73.0854
75.7839
77.2995
77.1528
75.6153
73.7126
72.5517
72.4117
72.2738
70.1364
64.0758
53.4749
39.6246
25.2881
13.4307
5.92843
2.96694
3.26616
5.01327
6.91091
8.46835
9.85942
11.3766
13.0338
14.4699
15.1781
14.9479
14.0694
13.209
13.092
14.0085
15.5704
16.9294
17.2894
16.5342
15.5156
15.5907
17.6033
20.986
23.7872
23.7252
19.7777
13.3085
7.72545
6.57433
11.3068
20.0046
28.1843
31.4024
27.983
20.0535
12.1595
8.61454
10.927
17.0901
23.1426
25.7131
23.9684
19.8247
16.5596
16.7753
21.0115
27.6926
34.0268
37.3226
36.0661
30.5129
22.738
15.7911
12.6477
14.8173
21.3847
29.1731
34.1981
33.7754
28.1279
20.4363
15.0539
14.8667
19.632
26.2052
30.6595
30.8133
27.5839
24.073
23.3313
26.1302
30.3543
32.4103
29.6932
22.4481
13.8484
8.21201
8.48467
14.4564
22.9974
29.9331
32.4825
30.7426
27.3787
25.8286
28.072
33.5585
39.5358
42.6187
40.5828
33.3826
23.0692
12.747
5.2866
2.20494
3.20286
6.43833
9.35718
9.9311
7.56337
3.25453
-0.857454
-2.88807
-2.21715
0.199093
2.44937
2.78356
0.560831
-3.67851
-8.73078
-13.3108
-16.0814
-15.282
-8.62494
5.87285
28.3005
55.1751
79.3635
92.1381
86.7349
61.7303
22.3431
-21.2719
-57.8256
-79.0303
-82.1246
-69.9323
-48.8892
-26.3689
-8.32262
2.06923
4.73273
2.14908
-1.85162
-3.60133
-1.13366
5.01346
12.2115
17.1446
17.601
13.6323
7.38825
1.85054
-0.850583
-0.426407
1.75735
3.80502
4.49083
3.97102
3.53936
4.64855
7.95299
12.7137
17.1543
19.4141
18.6426
15.7263
13.1689
13.8025
19.1777
28.4335
38.4244
45.3872
47.1538
44.5893
41.3177
41.5345
47.3696
57.5787
68.4128
76.0379
78.9945
78.8454
78.6876
80.7715
84.8604
88.6427
89.7662
87.8649
84.8894
83.6473
85.7158
90.1272
93.9139
93.9679
88.7868
79.1289
67.2521
55.4708
45.2148
36.8787
30.1925
24.864
20.7136
17.5202
15.1577
13.7778
13.9135
16.1876
20.6188
26.0008
30.0757
30.521
26.4
19.047
11.4955
6.86819
6.587
9.60511
13.3305
15.4489
15.3134
14.0607
13.4946
14.508
16.4041
17.4586
16.2451
12.7413
8.4878
5.55912
5.28978
7.48669
10.5661
12.6188
12.4919
10.4293
7.94753
7.16436
9.63297
15.4389
23.074
29.8427
32.9992
31.0617
24.6588
16.4576
9.99677
7.93537
10.8117
16.7713
22.4786
24.9568
23.2032
18.4209
13.3021
10.606
11.7686
16.3661
22.509
27.6402
29.6642
27.7198
22.4227
15.7065
10.1553
7.96645
9.8953
14.7824
20.0627
23.1899
22.933
20.0605
16.9469
16.0628
18.435
23.1053
27.8347
30.5087
30.412
28.3795
25.9383
24.2324
23.3916
23.1171
23.6357
26.0604
31.6205
40.421
50.5938
58.838
62.3017
60.5437
55.9151
52.2522
52.2601
55.5931
59.2146
59.4154
54.759
47.3128
41.2935
40.0874
43.8663
49.2477
51.6384
48.593
41.6943
35.695
35.5336
42.8852
54.7961
65.1373
67.9037
60.8567
47.349
35.5317
35.1485
53.2634
90.6237
140.335
189.371
222.833
229.497
206.156
158.973
101.018
47.225
8.93601
-9.47142
-10.6666
-1.69787
9.73723
17.9788
20.6247
18.2221
13.1706
8.47343
6.64771
8.8401
14.2848
20.4994
24.5874
24.6704
21.087
16.1973
12.8895
12.9341
15.7696
19.1243
20.6704
19.5036
16.634
14.2124
14.0591
16.7227
21.3883
26.6804
31.4852
35.3948
38.5477
41.1302
43.0817
44.1308
44.2632
43.9045
43.9938
45.6956
49.9188
56.7773
65.3634
73.9767
80.804
84.8662
86.6612
88.1232
91.453
97.6814
105.755
112.996
116.827
116.573
113.999
112.067
112.711
115.185
116.328
112.671
102.907
89.1734
75.8683
66.9156
63.4862
63.4014
62.6067
57.7135
47.8029
34.6177
21.3337
10.9795
5.2918
4.34501
6.86903
10.7848
13.9804
15.196
14.7358
14.674
17.7346
-1e-006
-1.7e-005
-4.6e-005
-7.8e-005
-9.8e-005
-9.9e-005
-8.9e-005
-9.7e-005
-0.000167
-0.00031
-0.000468
-0.000555
-0.000511
-0.00038
-0.000323
-0.000512
-0.000975
-0.001508
-0.001752
-0.001441
-0.000677
-4.8e-005
-0.000469
-0.002825
-0.007638
-0.009651
0.039773
0.08081
0.061437
-0.026547
-0.164808
-0.274881
-0.255164
-0.046362
0.193059
0.163189
-0.280618
-1.00519
-1.53077
-1.324
-0.32616
0.797284
0.968764
-0.523591
-3.24175
-5.45884
-4.94214
-0.258149
8.20705
18.3296
27.5245
34.4204
39.5418
44.6726
51.0972
58.2546
63.7412
64.6806
59.756
50.3965
40.2019
32.9942
30.8116
33.0555
37.1452
40.1657
40.4323
38.1216
34.9951
33.2633
34.5896
39.4611
46.944
54.8929
60.6382
62.0225
58.4222
51.0663
42.917
37.7039
38.4008
46.1469
59.7786
76.1
90.9366
100.533
102.936
98.5632
90.0119
80.8514
73.8782
69.8858
67.5966
64.7417
59.6841
52.6908
45.9249
42.2531
43.2737
48.1377
53.743
56.5146
54.3438
48.0202
40.9568
37.5415
40.8189
50.5617
63.0215
72.6078
74.7717
68.8267
59.3349
54.9097
64.4827
92.5606
135.875
183.274
219.606
231.633
213.595
169.7
112.275
56.5231
14.5855
-8.32507
-14.3588
-10.3722
-3.81482
0.647041
2.3144
3.42989
6.87164
13.6895
22.318
29.4676
32.2009
29.9278
25.1502
22.0462
23.8369
30.6012
38.8621
43.4304
40.4517
29.8305
15.3695
2.61185
-4.34484
-4.79669
-1.12111
3.54951
7.5193
11.2869
16.4127
23.6216
31.7446
38.3285
41.4005
40.9962
39.0148
37.9044
39.1401
42.5984
47.2135
52.1479
57.3117
62.9658
68.8981
74.179
77.8283
79.7859
81.3149
84.1376
88.8334
94.1533
97.7509
98.0205
95.6978
93.7282
95.2929
101.319
109.334
114.552
112.908
103.748
90.3611
77.8744
70.122
67.2651
65.9078
61.8029
53.0207
41.4134
31.4318
27.0297
28.8905
33.7984
36.8551
34.7097
27.8207
20.1323
16.3946
18.8646
25.8629
32.8288
35.2608
31.463
23.3353
15.0103
10.1118
9.83634
12.7989
16.3304
18.1564
17.4965
14.9294
11.7773
9.49438
9.3845
12.4658
18.9363
27.5972
35.8103
40.1923
38.3902
30.5863
19.6619
9.75654
4.05649
3.09455
4.90143
6.68609
6.72405
5.48597
4.94406
6.82695
11.1148
15.9952
19.2264
19.6524
18.1685
17.2302
19.174
24.5555
31.5387
36.6615
36.6701
30.3881
19.5471
8.19374
0.790353
-0.062534
4.8921
12.0122
16.5598
15.5409
9.49052
2.26206
-1.18341
2.17663
11.3322
21.6317
27.4293
25.5186
17.212
7.78339
3.39805
7.45747
18.4746
30.8411
38.0328
36.2876
26.6814
14.3419
5.46658
3.92947
9.41667
18.1514
25.5437
28.9466
28.8709
27.9945
28.7384
31.4705
34.2801
34.5425
30.9916
24.8091
18.8596
15.5601
15.3314
16.5846
17.0638
15.8139
13.7008
12.5958
13.7829
16.8836
20.1377
22.0804
22.8612
24.0369
26.9741
31.1897
34.0939
33.1421
28.7801
26.2398
34.111
60.0032
105.209
161.785
214.238
245.495
244.278
210.292
154.42
93.9786
45.3183
17.4353
9.55156
13.4506
18.8079
18.6228
12.2238
4.2939
1.03908
5.97544
17.584
30.2136
37.337
35.2625
25.1449
12.1373
2.21281
-1.15196
1.52412
6.85514
11.3845
14.119
17.0331
23.1547
33.4703
45.4013
53.4357
52.4044
41.0113
23.2053
6.33965
-2.60805
-0.772214
9.2659
21.2523
28.944
29.3698
23.8887
16.7316
12.3498
13.141
18.8744
27.6057
37.0918
45.7319
52.7047
57.6564
60.4615
61.3116
60.9893
60.7879
61.9988
65.2192
70.048
75.3418
79.7456
82.3512
82.8248
81.1338
77.3318
71.5885
64.6067
57.8278
53.1635
52.0799
54.5487
58.4616
60.283
56.7599
46.7713
32.3123
17.9744
8.85843
8.04551
14.9129
25.4085
34.0351
36.6828
32.6371
24.6485
17.193
13.8987
15.6779
20.5511
25.1676
26.9953
25.7223
23.1265
21.6557
22.7713
25.9629
29.1427
30.0337
27.7875
23.6853
20.7664
22.3873
30.5959
44.9988
62.6665
79.0184
89.4307
90.8269
82.7388
67.3877
48.9188
32.1011
20.9965
17.8764
22.6924
33.2335
45.9213
57.1345
64.4794
67.4923
67.5021
66.3933
65.0968
62.6667
56.7751
45.4699
29.2059
11.6848
-1.28814
-4.67268
2.87389
17.6324
32.3234
39.5927
35.821
22.9469
7.39417
-3.41141
-4.90884
2.42402
13.7463
22.8437
25.3872
20.8726
12.3568
4.2543
-0.088362
0.139677
3.52525
7.80969
11.3237
13.5447
14.7357
15.2039
14.9053
13.6065
11.5616
9.80814
9.88516
12.7769
17.9904
23.5087
26.6874
25.774
21.0493
14.8894
10.6512
11.0822
16.9851
26.9778
38.3926
48.5717
55.9465
60.2883
62.2728
62.7982
62.2993
60.6191
57.4061
52.7002
47.4594
43.4006
42.3382
45.0277
50.5115
56.1174
58.7676
56.6513
50.4092
43.1607
39.0919
41.2737
49.6993
60.9504
69.7763
71.764
66.0019
56.4379
51.0382
58.6628
84.7909
127.936
178.579
221.683
242.177
231.163
190.049
130.343
69.0741
21.9266
-2.59942
-5.34827
5.61646
19.8336
29.2962
30.9634
26.3426
19.1905
12.957
9.26008
7.82744
7.48842
7.27335
6.87015
6.57855
7.02651
8.61598
11.2597
14.4476
17.4789
19.7178
20.7854
20.6555
19.5391
17.9488
16.6053
16.5105
18.5967
23.0806
29.2472
35.5223
40.0801
41.5861
39.7874
35.6753
30.9514
27.2726
25.7112
26.5241
29.2022
32.7899
36.2909
39.2819
42.2175
46.3222
52.8231
61.9627
72.2413
80.6592
84.1817
81.5983
74.5879
67.1042
63.1373
64.2357
68.3762
71.0651
68.2885
59.2935
47.5727
38.8758
37.6067
43.7171
51.9772
54.5189
45.3252
24.0509
-3.13607
-26.4462
-37.4994
-33.856
-20.1812
-5.33237
2.82876
1.72624
-5.13755
-11.194
-11.6066
-6.59437
-0.942711
-0.319372
-6.99026
-17.9888
-26.9537
-28.287
-20.8079
-8.38152
2.71391
7.83194
6.4704
1.76496
-2.37063
-3.98474
-3.96726
-4.48073
-6.49828
-8.42772
-7.22435
-1.06922
8.59361
17.2902
20.2621
15.9831
7.76908
2.15858
4.85982
16.7154
32.546
43.7196
43.2311
29.8964
9.21459
-9.58026
-18.6171
-15.4141
-3.60039
9.79956
18.607
20.581
17.7917
14.4715
13.9147
16.6031
20.4072
22.3989
21.0027
17.0074
12.9911
11.5685
13.626
17.7374
21.0362
20.9853
17.0415
11.0779
6.30596
5.35259
8.58999
13.875
17.8656
18.1556
14.8809
10.7084
9.14785
12.2702
19.2215
26.615
30.4165
28.3049
20.9872
11.7417
4.47335
1.79115
4.01145
9.53996
16.1651
22.178
26.882
30.2398
32.3498
33.1797
32.9049
32.2889
32.5493
34.8433
39.4577
45.2773
50.1657
52.1399
50.4112
45.8295
40.2649
35.421
31.8892
29.087
26.0723
22.4078
18.8102
16.8352
17.9968
22.9312
30.8602
39.5401
45.7826
46.369
39.4153
25.7443
9.80388
-0.96094
1.52117
22.4222
60.8173
108.607
152.517
178.718
178.175
150.09
102.013
46.7579
-2.32035
-35.5234
-48.9914
-44.4457
-27.3527
-4.69129
16.9026
32.2718
38.7991
36.8995
29.8878
22.7305
20.0072
23.5958
31.4701
38.7262
40.3835
34.4209
23.1961
12.1861
6.6823
8.58897
15.4741
22.3453
25.1092
23.1455
19.396
17.7745
20.14
24.7976
27.7394
25.6765
18.4887
9.49404
3.30958
2.95979
8.31274
16.6087
24.5533
30.3236
34.1219
37.2392
40.63
44.2104
47.2569
49.3613
51.1399
53.8824
58.5889
65.1056
72.0762
77.686
80.7774
81.4403
80.8479
80.4818
81.1778
82.582
83.3439
81.9306
77.5265
70.4337
61.9148
53.6063
46.5876
40.8325
35.5349
29.8376
23.6388
17.85
13.8334
12.3775
12.9786
13.9735
13.6191
11.3756
8.46709
7.18667
9.52932
15.85
24.4685
32.5062
37.3471
37.8418
34.5666
29.3404
24.2027
20.6705
19.3549
19.9953
21.7737
23.8224
25.7205
27.9052
31.4292
37.1497
44.6501
51.7724
55.4064
53.2564
45.7447
36.409
30.2974
30.9373
37.954
47.0692
52.6417
51.3959
44.5599
37.0366
34.0244
37.3353
44.0514
48.6529
46.8615
38.6221
28.1955
21.0996
20.3538
24.5545
29.0611
29.4122
24.4089
16.8661
11.4204
11.3255
16.381
23.2592
27.9823
28.53
25.6753
21.7987
18.8941
17.2691
15.8508
13.7228
11.2794
9.91035
10.7729
13.5979
16.7671
18.6673
19.0877
19.4988
21.6032
25.5201
29.1208
29.4622
25.3537
18.8372
14.3316
15.5061
22.3032
30.3283
33.5051
28.2629
16.2649
3.73402
-2.44353
0.94234
11.5515
23.3669
30.8032
32.1246
29.9432
28.6389
30.7385
35.0395
37.7409
35.4759
27.9679
18.4571
11.5882
10.3697
14.2809
19.7457
22.5184
20.4036
14.4754
8.38138
6.06383
9.43989
17.3873
26.4528
32.5089
32.6291
26.2357
15.0849
2.60925
-6.90754
-8.95815
0.501371
23.9282
60.7277
105.882
149.922
180.919
188.454
167.998
123.464
66.4322
11.9799
-26.9338
-44.0778
-41.3768
-26.7595
-9.86719
2.13911
6.73825
5.64662
2.59296
0.822067
1.53911
3.83828
5.85075
6.19104
4.8613
3.28278
3.37296
6.24546
11.29
16.2907
18.5755
16.6765
11.4325
5.67784
2.63103
3.93576
8.52579
13.2431
14.7636
11.8424
6.14163
1.40167
1.17076
6.78332
16.7007
27.7666
37.0988
43.566
47.8466
51.2276
54.2118
56.2846
56.7689
56.1873
56.7257
61.0922
70.5785
83.5807
95.9367
103.156
103.141
97.5238
90.7418
87.3312
89.221
94.8005
100.248
101.976
98.5868
91.1975
82.1836
73.6134
66.378
60.4252
55.4552
51.2953
47.6776
43.9828
39.3241
33.2145
26.17
19.7215
15.5166
14.11
14.4995
-0
-4e-006
-9e-006
-1.3e-005
-9e-006
-1e-006
2e-006
-1.4e-005
-5.2e-005
-9.4e-005
-0.000113
-9e-005
-4.2e-005
-1.4e-005
-6.5e-005
-0.000202
-0.000367
-0.000447
-0.00036
-0.000136
6.7e-005
2e-005
-0.000434
-0.001264
-0.00225
-0.001722
0.012117
0.015013
0.005884
-0.029455
-0.060685
-0.042692
0.031043
0.108819
0.110523
-0.023774
-0.240862
-0.394436
-0.328961
-0.009784
0.351794
0.431558
-0.008632
-0.831702
-1.51592
-1.45738
-0.341456
1.48231
3.08146
3.51158
2.47489
0.738628
-0.077636
1.66165
6.54506
13.5378
20.3406
24.5715
25.0988
22.6533
19.4449
17.6849
18.1012
19.4108
19.1786
15.6001
9.00399
2.06793
-1.57926
0.374842
7.2631
15.5041
20.58
19.8032
14.1471
7.86459
6.00659
11.1277
21.4224
31.4056
34.9893
29.0804
15.6083
0.620668
-8.97571
-9.21223
-1.07403
10.3939
19.2504
22.0639
19.4738
15.2252
13.3934
15.9074
21.6776
27.7931
31.813
33.3191
33.936
35.9961
40.7454
47.5739
54.3464
58.6142
58.7803
54.6984
47.5818
39.4853
32.67
28.8463
28.7762
31.895
36.3222
39.408
38.8666
33.8023
25.1181
15.2188
6.96743
2.65265
3.37418
8.84282
17.5179
26.8218
33.5023
34.4801
28.421
17.4401
7.70258
7.93431
25.6504
62.5949
111.924
159.167
187.376
184.221
147.552
86.7925
19.1525
-37.3682
-70.6939
-78.0982
-65.232
-41.9856
-17.728
1.88346
15.335
23.7228
28.7549
31.4942
32.2171
31.1679
29.1452
27.4305
27.1296
28.384
30.1463
30.8206
29.3993
26.3022
23.4136
23.0852
26.6174
33.1662
40.0279
43.9926
43.1274
37.8707
30.6896
24.6675
22.0946
23.6838
28.9066
36.7258
45.9895
55.3023
62.8132
66.654
66.034
62.3258
58.9358
59.6755
66.382
77.5265
88.9477
96.2075
97.152
93.1193
87.8342
85.0116
86.4144
91.5205
98.627
106.162
113.179
119.05
122.802
123.184
119.6
112.956
105.47
99.4162
95.6456
92.9646
89.1661
82.6786
73.6268
63.5188
53.8861
45.1151
36.5194
27.5082
18.8554
12.8531
12.0391
17.3362
27.0509
37.4522
44.7038
46.7533
44.1191
39.1934
34.6378
31.8551
30.4964
29.1643
26.4704
22.0885
17.1575
13.7431
13.6574
17.3524
23.297
28.6523
30.862
29.1825
25.2593
22.2585
22.8023
27.0716
32.4459
35.0675
32.4032
25.129
17.0445
13.0377
16.2073
25.9805
38.442
48.419
52.0813
48.7285
40.7188
31.8215
25.2789
22.4946
22.8657
24.3833
24.9309
23.2444
19.4141
14.7565
11.1147
9.90578
11.4774
14.9877
18.9181
21.9736
23.7629
24.8419
25.8987
26.922
26.8862
24.3385
18.7296
11.5783
6.19464
6.19365
13.3805
26.2384
40.1182
49.4533
50.5939
43.7546
32.8567
23.4137
19.577
22.1738
28.689
35.1376
38.5462
38.4478
36.6774
35.7927
37.304
40.886
44.8532
47.4156
47.8005
46.3902
44.1135
41.6677
39.2139
36.594
33.791
31.2274
29.7454
30.1028
32.849
38.1747
45.789
54.7786
63.2665
68.5028
67.6142
59.0288
43.7205
25.4642
9.52922
0.381963
-0.578845
4.40424
10.8011
14.2834
13.0613
8.54799
4.17632
3.21187
6.77816
13.3134
19.3908
21.4272
17.492
8.52271
-1.53939
-6.59811
-0.356281
20.9885
56.0726
97.3047
132.43
148.64
137.947
101.2
48.4554
-4.75429
-43.7336
-60.3853
-55.6505
-37.7096
-17.1547
-2.08786
4.59634
4.75319
2.43768
1.03952
1.7347
3.66791
5.33228
5.84448
5.37358
4.72798
4.77866
5.98581
8.17265
10.8271
13.3446
15.3459
16.7883
17.9759
19.2856
20.951
22.8776
24.5244
25.2169
24.565
22.9169
21.3928
21.404
24.0318
29.3201
35.9454
41.5739
43.8435
41.4785
35.1022
27.282
21.6002
20.9682
26.1372
35.2897
44.7946
51.1653
52.8906
51.1613
49.1082
49.9475
55.2071
63.9691
73.4508
80.5417
83.1603
80.7806
74.1612
64.7723
54.196
43.9499
35.278
28.9799
25.1823
23.1805
21.5437
18.9643
14.9927
10.4836
7.40388
7.79193
12.6316
20.9963
30.0911
36.2279
36.525
30.3867
20.0323
9.58151
3.11197
2.68429
7.39419
14.0431
19.1995
21.1179
20.4125
19.3001
19.7871
22.1685
24.9922
26.2788
25.0629
22.1205
19.4411
18.9186
21.0445
24.8619
28.686
31.2155
32.1913
32.1509
31.8692
31.627
30.9911
29.1807
25.6944
20.7304
15.3117
11.0651
9.68112
12.3175
18.9275
27.8936
36.3543
41.3413
41.1589
36.4187
29.8708
25.132
24.7304
28.5231
33.6206
36.0064
33.023
24.9434
15.0379
7.67617
5.86254
9.60683
16.2205
22.1934
25.4644
26.4646
27.3176
29.8167
33.8684
37.4702
38.1707
34.9908
29.4383
24.6457
23.3521
26.1058
30.8953
34.3863
33.9182
29.058
21.7157
15.0493
11.9464
13.6709
19.4722
26.8808
32.6614
34.1079
30.3088
22.8128
15.3481
12.1084
15.6063
25.0774
36.7971
46.0181
49.5884
47.6126
42.9435
38.8441
36.549
34.558
30.1916
22.226
12.56
5.52292
5.19964
12.5549
24.4107
35.2124
40.2473
38.3622
32.369
26.8147
24.8827
26.2061
27.1386
23.2245
12.6433
-1.50378
-11.4973
-7.96166
15.5073
58.1175
110.345
156.266
179.23
168.785
125.549
61.4664
-4.77981
-55.2784
-79.6684
-78.0742
-59.1403
-34.683
-14.1241
-1.41019
4.55027
7.10831
9.16692
11.7913
14.6256
17.0686
19.0022
20.5067
21.1999
20.0973
16.4068
10.5477
4.64562
1.68923
3.81071
10.7279
19.6454
26.7147
29.0885
26.4891
20.9273
15.3271
11.6788
10.2646
10.288
11.0188
12.6454
15.8765
21.0165
27.369
33.4798
38.2796
41.9283
45.6092
50.3769
55.993
60.8392
63.1361
62.6297
61.3917
62.764
69.1776
80.2785
92.7229
101.906
104.44
100.036
91.633
83.7121
80.0575
82.1325
88.5547
95.7769
99.4623
96.0687
84.2687
65.6252
44.2535
25.2508
12.4536
6.68534
5.4667
4.80398
1.93425
-2.54621
-4.95889
-1.01616
11.0226
28.4977
45.4255
55.67
56.4092
49.4777
39.8464
32.4015
29.249
29.2171
29.5623
28.4358
26.1947
24.6683
25.3922
28.0921
30.7021
30.8289
27.4255
21.4542
15.1452
10.6189
8.9624
10.2393
14.0999
20.3067
28.5491
37.8995
46.4968
52.0859
53.2001
50.0284
44.375
38.7724
35.1657
34.1215
34.9014
36.113
36.3659
34.6338
30.3988
23.8403
16.0824
9.26631
5.92588
7.82924
14.8111
24.4976
33.1425
37.3976
36.0289
30.4257
23.685
18.8138
17.1954
18.1784
19.8692
20.457
19.3512
17.1927
15.0864
13.7316
13.0506
12.5215
11.9748
11.9481
13.3177
16.3273
19.8653
21.6974
19.6746
13.223
4.19179
-3.77325
-7.13896
-4.41325
3.04086
11.8648
18.6668
21.7861
21.7789
20.4696
19.4077
18.8862
18.2471
17.0528
16.1263
17.4947
23.0911
33.1835
45.4774
55.9623
61.0043
59.3011
52.717
45.2648
40.8898
41.2411
44.8025
47.9809
47.4955
42.4364
34.9695
29.1548
28.4772
33.9326
43.4109
52.9408
58.838
59.466
55.6375
49.638
43.7551
39.3047
36.8139
36.9372
41.4097
52.9791
74.006
104.24
139.023
169.251
183.839
173.926
137.287
80.5621
17.766
-34.6354
-64.0873
-66.6931
-48.0627
-19.8944
5.8195
21.7556
27.0299
25.4552
21.9745
19.6992
19.1399
19.4709
20.0793
21.2765
23.7142
27.1601
30.131
30.6828
27.8204
22.3378
16.4556
12.5041
11.7396
13.8077
17.334
20.8726
23.4425
24.706
24.6804
23.6737
22.2893
21.4475
22.1452
24.8865
29.286
34.2626
38.7365
42.2553
45.1935
48.2665
51.8848
55.789
59.3565
62.1913
64.4874
66.747
69.313
72.1012
74.843
77.5999
80.9053
85.2076
90.0332
93.7944
94.6562
92.0815
87.5273
83.7546
82.9351
84.6587
85.6958
81.8878
70.9771
54.3893
36.6147
22.5609
14.7199
12.1312
11.692
10.7861
9.17477
8.82587
11.9806
19.1354
28.3909
36.5086
40.8705
40.7584
37.3086
32.3958
27.4991
23.3034
20.0988
18.2294
17.9602
18.9947
20.2212
20.2519
18.5104
16.0162
15.0758
17.7475
24.1303
31.7494
36.6616
35.8416
29.1934
19.7948
12.1474
9.63911
12.6795
18.8098
24.6346
28.0421
29.2251
29.9946
31.8257
34.3315
35.4681
33.1866
27.3887
20.6867
17.0752
19.3638
27.0915
36.4188
42.188
41.0649
33.5944
23.9973
17.6547
17.9578
24.248
32.121
35.9076
31.7695
19.8022
4.02329
-9.4931
-15.4238
-11.5371
0.58458
16.4097
30.4749
38.5173
38.9863
33.3318
25.173
18.6704
16.8038
20.2914
27.5618
35.7712
42.2665
45.5801
45.7569
43.7719
40.7228
37.4337
34.48
32.3263
31.4027
32.036
34.0787
36.8807
39.677
42.1163
44.5076
47.6937
52.4821
58.9127
65.8767
71.1697
72.223
67.1769
55.9696
40.7377
25.4939
14.575
10.8648
14.3981
22.6313
32.0128
39.8874
45.5503
49.5288
51.7982
50.6652
43.7534
31.027
17.5124
12.9081
27.4168
65.2897
119.952
174.578
208.607
207.124
168.213
104.147
35.8296
-16.1914
-39.7094
-34.2355
-8.9238
22.7029
48.586
61.8851
62.2321
54.5422
46.0129
42.6325
46.3645
54.2714
60.4061
59.7796
52.27
43.6012
42.4529
54.8725
79.8409
109.035
131.407
139.568
133.784
121.081
109.859
104.22
102.13
98.6203
91.0474
82.1453
78.566
85.799
103.029
122.6
134.65
133.724
122.711
111.563
111.136
125.682
149.593
170.066
174.359
157.505
126.137
95.7194
82.7348
95.7923
130.469
170.997
198.088
198.817
173.608
135.941
105.022
95.3001
108.722
134.489
155.933
160.346
145.757
120.897
-2e-006
-2.3e-005
-6.4e-005
-0.000112
-0.000143
-0.000149
-0.000146
-0.000174
-0.000275
-0.000453
-0.00065
-0.000776
-0.00078
-0.00071
-0.000715
-0.000954
-0.001452
-0.002032
-0.002372
-0.002207
-0.001586
-0.00102
-0.001463
-0.004104
-0.010076
-0.013019
0.052435
0.110937
0.098866
-0.039482
-0.228309
-0.354174
-0.316904
-0.098941
0.113832
0.039699
-0.463799
-1.22689
-1.77875
-1.65121
-0.805919
0.156277
0.279633
-1.09304
-3.6832
-6.02891
-5.97184
-1.59586
7.85066
21.4883
37.1495
52.395
65.4865
75.7895
83.5055
89.1259
92.8049
94.052
92.2265
87.2565
80.1728
73.0696
68.299
67.3202
69.7229
73.2177
74.8181
72.731
67.778
63.2679
62.8513
67.628
74.4177
76.887
69.3684
50.9999
27.6841
9.76053
6.81054
22.2613
51.2024
82.6143
105.069
112.211
105.304
91.695
80.5834
78.3582
85.8724
98.4307
108.184
108.012
95.0933
72.651
48.7781
32.795
30.3594
40.3717
55.7861
67.9246
71.9473
69.9218
68.699
74.1006
85.5545
95.4881
94.3784
78.2238
53.5077
35.2855
38.9407
70.9601
124.335
181.738
224.33
240.674
230.353
201.209
163.043
122.464
82.2137
44.1079
12.1627
-7.3095
-9.2956
5.46664
28.8525
48.8648
56.2727
50.0636
38.1039
31.8313
38.6324
56.6398
75.8078
84.3353
76.2976
55.3488
32.2763
18.1134
17.5377
26.9986
38.1339
43.817
42.5067
38.4318
37.5179
42.6606
51.4239
57.6804
55.7537
44.3671
27.4664
11.8683
3.31974
3.48982
9.76775
17.5863
23.7266
28.2143
33.418
41.5085
51.8121
60.2862
61.7824
53.7759
39.158
25.9806
23.8444
38.5313
68.5021
105.19
137.044
155.197
157.219
147.609
134.558
125.55
124.163
129.091
135.693
138.306
132.447
116.442
92.0801
64.4444
40.4959
26.5741
25.6484
35.5672
49.7177
60.093
60.9866
51.6603
36.2723
21.4952
13.1672
14.1696
23.8506
39.0974
55.7636
69.8042
78.0152
78.6127
71.6827
59.1704
44.1393
29.4486
16.6974
6.28095
-1.59108
-5.60205
-3.25844
7.61075
26.5164
48.8905
67.2869
74.779
68.5636
51.7754
32.104
18.0582
14.9484
22.8509
37.2758
51.9285
61.6832
64.2785
60.4594
53.1411
46.1207
42.6647
44.4938
51.4331
61.4838
71.6488
79.1011
82.2216
80.9549
76.4504
70.3865
64.612
61.0883
61.9229
68.7203
81.5849
98.2101
114.426
126.163
131.73
133.041
134.463
139.846
149.737
160.566
166.606
163.226
149.526
128.655
105.932
86.0004
70.9242
59.9453
50.5753
40.106
26.9507
11.7693
-2.23556
-9.96484
-6.40483
10.4203
36.9906
64.2406
81.0162
79.6454
60.6768
33.4586
11.5132
5.07783
15.4832
35.0463
52.5743
61.0844
62.7195
67.2241
84.917
118.476
158.778
187.744
187.13
148.267
77.5116
-5.2846
-74.8732
-111.351
-108.049
-73.2679
-25.2926
16.4237
39.3278
41.7123
31.0084
18.0427
11.1808
12.9457
20.6456
29.4505
35.6285
37.9865
37.1765
34.1634
29.4016
23.3217
17.2351
13.4853
14.2394
19.8394
27.8636
34.4528
36.8449
35.566
34.5395
38.4773
49.6037
65.6064
80.5573
88.3269
86.3673
77.1587
66.7287
60.9427
62.3286
69.0607
76.8632
81.9487
83.3262
83.1897
84.9695
91.0376
101.267
113.01
122.674
127.762
128.068
125.536
123.118
123.145
126.24
131.171
135.856
138.696
139.684
140.257
141.887
144.396
145.075
139.476
123.843
98.1484
67.3757
40.0787
24.3262
23.4186
33.7916
47.0598
54.6914
52.8077
44.2217
36.1208
35.0621
42.4326
53.4332
60.1302
56.9074
44.5508
30.3576
24.086
32.317
54.3927
82.5921
106.187
116.984
113.109
99.1919
82.9667
70.6869
64.0729
60.2587
54.4695
43.7313
29.0464
15.0817
7.60757
10.1385
21.6967
37.3076
50.464
56.6514
55.528
50.7292
47.3134
48.4894
53.6216
58.3514
57.7072
49.7376
37.3212
26.8363
24.3551
31.7824
45.3069
57.6132
62.6232
59.4471
53.1766
51.4573
59.1692
74.9516
91.6095
100.595
97.4249
84.4205
68.9865
58.9001
57.6278
62.8619
68.9329
71.1126
68.7664
64.7525
62.7025
63.605
64.9486
62.9475
55.754
45.7184
37.7848
36.2995
41.5631
49.0337
52.4967
48.0224
36.8404
24.7699
18.3609
20.2505
27.3811
33.7657
35.9483
36.7324
45.0048
70.622
116.741
174.938
226.872
252.102
237.521
184.164
106.576
26.1678
-37.7993
-74.2719
-81.7584
-65.668
-34.074
5.47422
46.4796
83.161
110.39
124.662
124.917
112.709
91.3449
65.4713
40.7567
23.5563
19.9461
33.2913
61.4893
95.6216
122.292
129.83
114.873
85.7347
58.3578
47.8759
59.446
84.8784
107.677
113.354
99.5701
77.3652
63.5489
69.6682
94.3579
124.355
143.11
141.514
123.39
101.899
90.6533
96.1161
114.748
137.378
155.514
166.09
170.967
173.753
176.162
176.726
172.823
163.566
151.494
141.633
139.012
146.492
163.276
184.603
203.019
210.583
201.708
175.624
137.542
97.753
68.0829
57.0997
66.4308
89.8933
116.044
133.395
134.933
120.552
96.9371
74.1883
60.8681
60.1162
68.8498
79.8667
86.3703
85.3194
79.0087
73.0946
72.5585
79.4975
92.3185
107.013
118.875
124.028
121.486
113.699
106.408
106.888
119.927
144.501
172.654
193.049
197.896
188.327
174.652
170.106
182.287
207.006
230.681
239.554
229.005
206.142
185.306
178.057
185.439
198.688
207.225
206.694
202.061
201.91
210.193
221.527
224.01
208.213
175.824
140.533
120.83
128.388
160.909
202.982
235.31
245.368
233.104
209.336
187.955
177.771
178.648
183.712
184.362
176.026
159.873
141.543
127.086
120.425
122.161
129.023
136.951
142.876
146.18
148.26
150.815
153.61
153.847
147.435
132.595
112.079
93.1927
83.2791
85.2163
95.2778
105.285
107.732
101.535
93.2229
92.6949
107.499
137.338
173.912
205.993
222.997
219.092
193.741
149.872
93.5078
34.4563
-14.5876
-40.9937
-38.3538
-11.2819
25.7823
55.5961
67.9471
65.0289
58.6327
60.6308
73.4912
87.5017
89.3968
74.3115
53.1725
47.0567
72.9082
128.019
188.711
223.851
214.183
167.278
113.283
85.3146
96.9452
134.416
167.625
172.389
147.564
115.275
103.017
123.239
163.099
193.992
192.427
156.313
106.193
71.4396
70.208
99.2844
139.541
170.25
182.478
182.193
181.332
187.167
197.331
203.542
199.982
188.573
177.433
174.838
183.046
197.336
211.01
219.796
223.204
222.054
214.712
197.687
169.425
134.344
103.842
90.6657
100.787
127.936
156.276
169.085
158.794
131.501
102.002
84.1132
82.293
90.4658
97.7958
97.6855
92.447
90.8189
100.23
119.916
140.15
148.797
139.425
116.42
93.5787
85.1798
96.712
121.972
146.707
157.81
151.347
134.99
122.483
124.01
139.595
158.862
167.385
155.91
126.499
91.7937
67.7434
64.7803
82.1459
108.6
129.144
133.162
119.52
96.2434
75.6388
67.5565
74.5037
91.0411
107.021
112.813
103.956
83.0977
58.3974
39.5182
33.2165
40.251
55.4291
-6e-006
-7.6e-005
-0.000214
-0.000402
-0.00056
-0.000596
-0.00051
-0.00045
-0.000664
-0.001291
-0.002181
-0.002902
-0.002989
-0.002385
-0.001688
-0.001877
-0.003597
-0.006423
-0.008749
-0.008679
-0.00554
-0.00119
-0.000211
-0.008625
-0.031741
-0.048255
0.161158
0.353543
0.422522
0.073422
-0.719177
-1.56011
-1.74801
-0.857251
0.617896
1.34155
0.003466
-3.51732
-7.32817
-8.3945
-4.94022
1.48568
5.91488
2.88597
-8.91704
-23.7379
-29.8373
-14.9553
26.4266
88.6797
156.557
212.39
244.642
252.848
246.471
238.305
236.648
241.297
245.22
240.137
222.6
196.578
171.58
157.279
158.334
172.04
189.958
201.71
199.936
183.381
157.249
130.881
113.59
110.399
119.554
133.217
141.258
135.594
115.123
86.3777
60.7054
48.875
55.527
76.7402
102.01
119.706
123.142
113.437
98.2117
86.8995
85.3939
93.4363
105.649
115.473
118.88
115.708
108.429
99.7275
90.8217
81.5636
71.9177
63.0435
57.0628
55.3959
57.694
61.9809
66.3611
71.1623
79.556
95.3487
119.466
147.102
168.175
171.063
148.38
101.625
41.9397
-14.2839
-52.0803
-64.1259
-53.1255
-29.192
-4.16441
13.84
22.863
25.9784
27.7503
30.8798
35.2178
38.9592
40.5468
40.1611
39.3167
39.4406
40.6679
41.5793
40.4152
36.5073
30.8239
25.5951
23.1468
24.6863
29.5597
35.7493
40.6689
42.3212
39.9391
34.197
27.0613
21.0071
18.2339
19.6063
24.3616
30.4909
35.8954
39.2576
40.6819
41.3377
42.5575
44.9992
48.4947
52.5326
56.888
61.8601
67.7617
74.2362
79.7495
82.1593
80.09
74.0135
66.2925
60.0643
57.4763
58.3622
60.3554
60.3451
56.2609
48.247
38.3519
29.1921
22.467
18.4203
16.0841
14.0732
11.4466
7.87039
3.52753
-0.875922
-4.31557
-5.34625
-2.4081
5.68661
18.9093
35.3803
51.5284
63.1929
66.829
60.9245
46.9913
29.6657
15.7128
11.858
21.8156
43.6377
69.2794
86.9805
86.3906
63.9916
26.0362
-13.2989
-37.9937
-37.7013
-12.8805
25.5071
61.3783
81.329
80.5265
64.0329
43.1872
29.3644
28.4084
38.7054
53.1604
63.4232
64.1599
55.34
41.8202
30.9551
29.1133
38.5801
56.2639
74.9301
86.3515
85.2774
72.0902
52.5477
34.8019
25.241
25.3732
31.8728
39.2066
43.2835
43.8362
43.9439
47.354
55.7878
67.5368
78.4677
84.4603
83.7604
77.7127
69.8114
63.6447
61.1549
62.0526
64.5706
66.7383
67.4843
67.0228
66.3801
66.3927
67.0284
67.2379
65.6879
61.9219
57.6209
56.8052
64.8197
85.9637
120.967
165.102
208.253
237.529
241.703
215.908
164.425
100.239
41.0057
2.47213
-7.81577
6.55634
32.6658
54.2524
59.3949
45.8559
21.4598
-0.458731
-8.36473
1.52442
23.9263
48.368
65.563
72.6198
73.7491
76.2012
84.4512
96.4017
104.36
100.093
80.7535
51.4761
22.9634
5.40789
2.85714
11.3795
22.4728
28.9401
29.3085
27.9608
31.3588
42.893
60.2553
76.9013
86.3852
86.2893
79.5387
72.2178
69.8003
74.2246
83.4572
93.2869
99.7769
101.218
98.5277
94.4597
92.1393
93.663
99.079
105.936
110.054
107.533
96.882
80.2395
62.6707
49.6125
43.7506
43.5479
44.3778
41.4971
32.9443
20.2203
6.49523
-6.0943
-17.9528
-30.913
-45.6858
-59.8849
-68.5145
-67.1339
-55.2551
-37.6079
-22.0017
-15.0319
-18.5887
-29.2144
-40.4709
-46.7462
-46.0606
-40.3231
-33.3175
-28.0895
-25.5187
-24.464
-22.9811
-19.9511
-15.6115
-11.2568
-8.50208
-8.411
-11.0573
-15.5526
-20.4409
-24.1109
-25.3094
-23.5599
-19.3071
-13.7508
-8.36615
-4.41712
-2.43504
-1.9733
-1.90371
-1.03781
1.16942
4.23887
6.81179
7.47514
5.76001
2.6504
0.226783
0.369658
3.44262
7.71836
10.2216
8.53962
2.41643
-5.67054
-11.5658
-11.6929
-4.94966
6.7538
19.4597
29.0715
32.9271
30.498
23.2198
13.7899
5.5725
1.86181
4.77387
14.1719
26.9817
38.0458
42.5709
38.9498
30.3348
23.3029
23.869
33.4775
47.6235
58.3564
59.2301
49.7424
35.7539
25.763
25.2254
32.8514
41.6907
44.0651
36.9811
24.1515
13.3164
10.681
16.6349
25.89
31.9837
32.9472
33.7916
43.7844
69.9174
110.943
155.968
188.853
196.166
173.957
129.603
78.0838
34.9146
9.52058
2.46379
7.24483
14.7878
18.1597
15.1072
7.75505
0.367301
-3.43169
-2.47304
1.66854
5.82239
7.21204
5.1277
1.39046
-0.708574
1.60271
8.81156
18.3344
25.8573
27.807
23.3611
14.9902
6.94644
2.90213
3.68024
7.10967
9.62435
8.58766
4.01969
-1.35423
-3.83326
-0.792024
7.84342
19.5734
30.6774
37.9859
40.3839
39.3272
38.0818
40.1717
47.7269
60.4394
75.4197
88.3105
95.127
94.0334
86.1771
75.2419
65.9248
61.6832
63.1439
67.8303
71.4271
70.2284
63.3895
53.7488
46.5407
46.4084
54.4031
66.7875
76.8529
78.8503
71.8027
60.6274
53.5474
57.0841
71.8883
91.6128
106.21
107.525
93.4868
68.8275
42.0647
20.8791
8.64628
4.15989
3.83538
4.52432
5.01329
5.63801
6.77844
8.01686
8.30941
7.03048
4.78739
3.0897
3.24721
5.38088
8.26985
10.1342
9.82553
7.5004
4.25045
1.38325
-0.372617
-1.03022
-1.01102
-0.706744
-0.220724
0.448206
1.21599
1.84046
2.11442
2.03769
1.8363
1.71036
1.59231
1.17896
0.283339
-0.761829
-0.887858
1.2245
6.28419
13.5994
21.0186
25.7981
26.1229
22.2499
16.5278
12.2383
11.7013
14.9619
19.8771
23.634
24.6575
23.6186
22.9357
24.9499
30.0395
36.098
39.804
38.8043
33.4743
26.938
23.1522
24.6303
31.1093
40.0243
48.4162
54.7491
59.2761
62.8121
65.1779
64.9628
60.8662
53.9323
48.9219
53.0765
72.5967
108.612
155.079
200.086
230.244
235.789
214.285
171.171
117.37
65.2679
24.8098
1.01693
-6.4578
-2.07378
7.86188
17.5645
23.5243
24.9653
23.1644
20.1067
17.2794
15.2368
13.7153
12.284
10.7722
9.39305
8.65132
8.92542
10.2767
12.3392
14.2812
15.1784
14.6317
13.2036
12.4611
14.1111
18.4249
23.3465
25.1888
20.9803
11.2628
1.18277
-1.64656
8.28953
30.2623
56.3787
75.274
78.3352
64.9673
43.3633
26.0511
22.9345
35.9768
58.6174
80.1977
92.0905
92.1331
84.9678
78.6095
79.4312
88.8083
102.844
114.966
119.644
115.185
104.342
92.7625
85.8759
86.0039
91.1043
95.69
93.8433
82.5234
63.5839
42.9557
27.497
21.3709
23.7936
29.7597
33.2457
30.8118
23.4174
15.2834
10.7746
11.4165
15.3459
18.9785
19.8658
18.6693
18.7679
23.7658
35.0083
50.427
65.5553
75.9379
79.2936
76.5534
71.0223
66.7295
66.8915
72.6722
82.3947
91.7249
95.0645
88.3651
71.9763
51.7488
37.2591
36.9714
52.6901
77.2875
98.0349
103.895
92.4956
72.104
56.4817
56.1661
71.3472
91.9291
104.447
101.426
86.4907
71.9739
70.7204
87.1228
114.562
139.848
151.407
145.966
129.358
111.516
100.081
96.8355
99.0202
103.249
108.813
117.329
129.26
141.061
145.492
135.803
111.331
79.7206
53.8184
44.6979
55.175
78.3317
101.595
114.336
113.552
104.615
96.4137
95.1798
101.199
110.1
117.321
121.64
125.29
130.831
137.391
140.157
134.047
118.565
100.439
91.4137
101.808
134.35
181.738
229.733
263.295
272.708
256.243
218.685
168.331
113.639
62.2164
20.7976
-5.26608
-13.3417
-5.2382
12.274
29.597
38.7141
37.4715
31.0718
29.2752
40.5622
66.3558
99.476
127.358
138.83
130.347
107.677
82.0216
63.3482
54.9955
53.2015
51.0693
44.6635
36.2462
32.9763
41.6073
63.0487
90.8995
114.225
123.503
115.978
97.0509
77.1288
66.1643
68.8964
83.1909
101.756
116.133
120.815
115.411
104.505
95.3399
94.3331
103.9
121.296
140.186
153.726
158.233
154.197
145.137
134.502
123.523
111.525
98.5563
88.4121
88.5553
106.168
142.309
187.627
224.832
236.558
214.573
165.624
108.472
64.1452
44.576
47.9946
62.2282
73.872
76.8067
74.382
74.2598
80.8808
91.5911
98.8865
96.8576
86.1343
73.9884
68.9444
74.5764
87.2205
99.355
105.066
104.041
100.736
100.515
105.388
113.312
120.766
125.699
128.915
131.994
134.746
134.312
126.989
111.276
89.4719
66.9018
48.4098
35.8815
28.0971
22.8748
19.2863
18.2521
21.1859
27.8261
35.4951
40.8141
41.4917
38.2333
34.6026
34.7159
41.1953
53.7923
69.4884
83.4024
90.9715
89.7485
80.6983
68.3433
59.2857
59.1556
69.2836
85.4097
99.3473
103.268
94.2935
76.621
59.5447
52.1893
57.9216
72.659
87.2487
93.0131
86.7574
72.649
59.0299
53.1135
56.7458
65.7303
73.5765
76.2991
75.8801
79.7788
96.1479
127.964
169.235
205.917
221.48
204.785
156.186
88.4758
21.747
-24.9528
-41.4509
-29.5874
-0.385086
32.8298
61.1011
82.4369
99.7609
116.309
131.696
141.676
141.156
128.24
106.286
82.4794
64.4762
57.1006
60.9405
73.2
89.4154
104.775
114.82
116.098
107.238
90.5883
72.4072
60.8255
61.8675
75.785
96.0176
112.13
115.047
102.08
78.6314
54.926
40.5603
39.8519
50.5557
65.8419
78.6733
85.4102
86.3991
84.6046
82.9137
82.2154
81.0813
77.5367
71.1673
64.1412
60.1317
62.1045
69.7679
79.0306
83.848
79.9749
68.0871
53.9378
45.4073
47.7213
59.9674
75.0279
83.4092
78.6685
61.4718
39.0801
21.4332
15.7603
22.9839
37.6926
51.464
57.285
52.3938
38.9098
21.8205
-1e-006
-1.2e-005
-3.3e-005
-6.3e-005
-9.1e-005
-9.8e-005
-7.7e-005
-4.7e-005
-5.8e-005
-0.000149
-0.000306
-0.000452
-0.000483
-0.000355
-0.00016
-9.3e-005
-0.000332
-0.00086
-0.001398
-0.001525
-0.000985
-2.1e-005
0.000518
-0.000604
-0.00449
-0.007952
0.022605
0.051711
0.070957
0.02582
-0.103159
-0.266117
-0.348486
-0.204965
0.110153
0.353052
0.22475
-0.378963
-1.1898
-1.58691
-1.07234
0.249127
1.49314
1.42774
-0.589363
-3.77386
-5.83142
-3.98167
3.36622
15.2194
28.0405
37.2784
39.7278
35.3405
27.3434
20.4217
18.0053
20.3962
24.725
27.0545
25.2078
20.4634
17.14
19.8756
30.4109
45.9557
60.015
65.773
60.0296
45.7406
31.3061
26.9244
39.7738
70.0991
110.271
147.355
168.015
163.484
133.018
84.1759
30.2675
-14.2404
-38.5941
-39.2749
-20.9228
6.0639
30.0752
43.181
44.1848
38.3412
33.8021
36.7948
48.2216
63.4716
75.3693
78.3494
71.3951
58.1296
44.1915
33.8849
28.4089
26.3822
25.8996
26.5701
29.7431
36.9764
47.9308
59.4237
66.3799
64.4274
52.6279
34.4625
16.5291
5.38377
4.27544
11.8049
23.0372
32.5146
37.1968
37.7391
37.3282
38.9267
43.1359
47.6538
49.1563
45.9818
39.833
35.1095
36.3819
45.45
60.1531
75.4021
86.0487
89.4428
86.2547
79.3812
71.8203
65.0238
58.7644
52.1257
44.6637
36.7172
28.9913
21.9915
15.8759
10.8439
7.52511
6.87268
9.26604
13.64
17.6147
18.7386
16.1845
11.9305
9.93106
13.7503
23.986
37.1756
47.2003
48.5236
39.5875
24.2144
10.0638
4.83533
12.3067
30.2548
51.3906
66.7893
70.0726
60.1878
41.7984
22.8959
11.2026
10.7799
20.7393
36.2604
51.1988
60.7642
63.1611
59.3998
52.0276
43.5947
35.9432
30.2201
27.1983
27.2821
30.2389
34.9264
39.5152
42.3435
42.8164
41.6681
40.2974
39.5616
39.1316
37.8474
34.784
30.3797
26.4834
25.2784
27.8751
33.3886
39.3373
42.9879
42.5666
37.8397
29.8047
20.1162
10.6885
3.57833
0.810667
3.76792
12.2987
23.9836
34.7307
40.3886
38.7613
30.9042
20.7125
12.9682
10.8989
14.5314
20.7701
25.0898
23.9197
16.6533
6.40897
-0.787276
1.90417
19.2709
51.4542
92.6214
131.953
156.891
157.845
132.232
86.047
31.8443
-16.0308
-46.8078
-56.7558
-49.3
-32.1155
-13.1942
2.25582
12.7499
19.3026
23.5686
26.4893
28.0776
27.9881
26.1106
22.8606
18.891
14.7262
10.7661
7.50696
5.68081
6.0212
8.73655
13.0302
17.1512
19.0911
17.5686
12.9191
7.0938
2.86582
2.64051
7.26873
15.6148
24.9918
32.3326
35.5797
34.6356
31.4644
29.1616
30.382
36.0329
44.7489
53.5564
59.4991
61.1753
59.4275
56.6909
55.4582
56.7728
59.7327
62.1575
62.0392
58.7358
53.2238
47.2636
42.2104
38.2335
34.4088
29.5827
23.2873
16.0798
9.24847
4.04858
1.00677
-0.256179
-0.607668
-0.828051
-1.22639
-1.604
-1.48004
-0.477864
1.42338
3.87556
6.24461
7.83428
8.06406
6.76474
4.35619
1.84908
0.443452
1.02814
3.58971
7.03644
9.61715
9.74165
6.93808
2.26135
-2.1179
-3.91378
-1.95409
3.23866
9.68652
14.9834
17.4616
16.9225
14.4541
11.6811
9.85056
9.38106
10.0322
11.4382
13.5332
16.424
19.9473
23.3404
25.3583
25.0367
22.4369
18.8281
16.0289
15.1751
15.8522
16.267
14.4841
10.0824
4.91661
2.41935
5.55757
14.8863
27.7852
39.5028
45.5652
44.1717
37.0418
28.4326
22.6237
21.6216
24.1601
26.7539
25.95
20.6733
12.9607
6.95184
6.41468
12.2834
21.8585
30.1895
32.9536
29.118
21.6531
15.7164
15.2859
20.4648
27.3541
30.7615
28.1075
22.0599
19.7306
28.6068
51.5275
83.722
114.104
130.069
123.427
94.266
50.7794
5.58137
-29.5123
-47.5432
-47.7837
-34.6319
-15.0341
4.08417
17.5692
22.9908
20.7682
13.6153
5.3963
-0.296442
-1.53565
1.26661
5.87353
9.58696
10.6488
9.06748
6.2848
4.17371
3.8816
5.41569
7.85457
10.0801
11.2341
10.9776
9.39868
6.86229
3.96026
1.50412
0.368507
1.10667
3.58103
6.90444
9.79104
11.1412
10.5732
8.46071
5.6082
2.81401
0.654331
-0.517804
-0.401809
1.17219
4.09562
7.80105
11.4009
14.1563
15.9767
17.5142
19.7033
23.0459
27.2096
31.2623
34.307
36.2395
37.8678
40.2683
43.8506
47.7082
49.9594
48.7867
43.5563
35.3247
26.4491
19.3852
15.429
14.216
14.0959
13.2062
10.6204
6.93534
3.93356
3.69206
7.48781
15.0348
24.5919
33.7668
40.5691
44.1281
44.8092
43.7068
42.0053
40.6356
40.4517
42.4684
47.7464
56.7567
68.5718
80.6301
89.4877
92.4775
89.1159
81.4755
73.0516
66.9289
64.4014
64.8856
66.9634
69.4732
71.9217
73.845
74.1286
71.2257
64.1817
53.9944
43.8591
37.7356
38.0839
44.1246
52.1108
57.4027
57.0409
51.0951
42.1069
33.2026
26.3009
21.635
18.6186
16.8745
16.578
17.8148
19.7947
20.7632
18.9704
13.9232
6.94033
0.423964
-3.49465
-4.04075
-1.7807
2.30713
7.66649
14.2326
21.7074
28.7852
33.2754
33.1963
28.1117
19.8092
11.7963
8.1244
12.0011
25.0893
47.2037
76.052
107.054
133.455
147.48
142.655
116.851
74.0559
23.8836
-21.4431
-51.4073
-60.8168
-50.988
-28.3563
-1.377
22.4279
38.3037
44.6737
42.6855
35.3133
26.4402
19.7045
17.1577
18.5692
21.7401
24.0048
24.183
23.7336
26.0996
34.2337
48.0209
63.347
73.8566
74.5445
65.1244
50.785
39.4797
37.3042
44.6617
55.986
63.0683
60.1014
47.345
31.1024
19.982
19.9216
31.0017
47.761
62.7251
70.9218
72.3213
71.1997
73.0478
80.952
93.6013
106.043
112.671
110.507
100.997
89.2595
81.4788
81.6779
89.6677
101.337
110.986
114.197
109.804
99.9722
88.6004
79.0106
72.5041
68.2355
64.1683
58.6198
51.0681
42.1542
32.9129
24.2164
16.6246
10.6354
6.98072
6.43797
9.18514
14.1956
19.2989
22.1979
21.6186
17.9742
13.059
9.05594
7.35447
8.01121
10.137
12.821
15.4181
17.432
18.0093
15.8563
9.98205
1.1167
-8.23681
-14.7922
-16.3068
-13.0078
-7.4943
-2.53511
1.31483
6.55774
16.7295
32.9298
51.6601
65.5873
67.6084
55.32
32.9041
9.36372
-6.17639
-8.94521
0.028376
15.6612
32.2076
45.4516
53.1176
54.3732
49.589
41.4173
35.361
38.3771
54.7904
81.915
109.174
122.422
112.072
79.9133
39.7888
10.4081
4.67387
22.2048
49.6662
68.7038
66.8416
44.1384
12.1288
-13.279
-20.338
-6.54441
21.5899
52.5886
74.8519
81.0916
70.8091
50.9764
34.5069
36.0206
65.0615
120.109
186.828
242.699
266.656
248.779
194.932
123.322
55.9114
9.32798
-10.3039
-6.29545
13.2825
40.2053
68.369
93.3789
111.67
120.648
120.058
113.184
105.851
103.61
108.541
117.612
124.077
121.03
105.772
82.1117
59.3027
47.8334
54.1916
76.7109
105.377
126.678
130.793
116.834
93.856
75.8953
73.5206
87.4447
108.167
121.939
119.556
102.251
80.8401
69.1135
75.7997
99.4516
129.713
153.504
161.908
154.15
136.896
120.061
112.059
116.27
130.144
146.566
157.017
155.527
141.537
120.449
100.998
90.5582
91.1784
98.6384
105.63
106.988
103.099
99.3228
101.322
109.778
118.81
119.149
104.643
77.0772
46.125
24.2227
19.5175
31.3423
51.0691
67.3343
72.1216
64.5623
50.3598
37.6169
32.1575
34.6063
40.6528
44.2642
41.5456
33.1979
23.835
18.7596
20.1988
25.8571
31.0331
32.4893
31.6347
33.7169
43.6342
61.1207
78.7836
86.1357
76.8613
54.3925
31.4069
22.8546
36.424
66.9169
98.7742
115.586
110.206
88.7754
66.1823
55.9253
61.5497
75.362
84.4142
79.8757
62.7689
42.4318
29.6659
29.4518
38.647
49.4696
55.692
56.6917
56.753
60.5316
68.4793
75.7632
75.4887
63.7829
43.0155
21.0595
7.25382
7.23004
20.1954
39.6222
56.6974
64.4838
60.6139
47.6009
30.804
15.5938
5.10376
-0.119204
-0.421012
5.07678
19.5694
47.0908
88.44
137.896
182.946
208.151
202.155
164.032
105.064
44.6284
2.27751
-9.99344
8.27511
47.1675
91.2057
125.55
140.973
136.539
118.858
98.9323
87.0125
87.6633
97.6304
107.598
107.923
95.031
74.5306
58.3669
57.6805
75.526
104.212
129.362
138.131
126.459
100.979
74.6244
59.1372
58.9514
69.968
83.0066
89.6857
86.6581
76.351
64.4221
55.882
52.5493
52.9353
54.0678
54.1293
53.9086
56.0481
62.7579
73.5432
84.8393
91.9546
92.0048
86.1923
79.1716
75.9414
78.1643
82.7667
84.0635
78.2255
67.0243
57.5325
57.9396
71.9656
95.6072
118.5
129.443
122.44
99.9428
71.2089
46.8396
33.0316
29.01
28.7958
25.9205
18.1708
9.36587
7.02677
17.3768
40.9083
71.007
96.6911
108.103
101.504
81.2907
57.6172
41.4023
39.315
50.9742
69.5351
85.113
89.1371
78.1973
55.7903
31.2512
16.2141
19.3375
41.7431
75.6647
107.642
124.973
122.192
103.826
81.593
67.4887
66.9665
76.3059
85.9667
87.3365
78.3217
64.2608
53.6437
52.0935
59.0872
69.2647
77.0629
80.833
83.4399
89.0181
98.5022
107.737
109.448
98.4044
75.7087
49.4527
30.6284
26.9595
38.3778
56.7362
70.6629
72.0127
60.2331
42.2194
27.7953
23.7143
29.6229
39.0069
43.7928
39.7822
29.6426
21.3762
23.4199
39.2824
64.7641
89.8993
104.397
103.367
89.5368
72.1374
62.3023
67.5814
88.3814
118.101
145.712
160.479
-4e-006
-5.5e-005
-0.000176
-0.000328
-0.000425
-0.000397
-0.000272
-0.000215
-0.000425
-0.000962
-0.001624
-0.001996
-0.001767
-0.001073
-0.000563
-0.001019
-0.002684
-0.004832
-0.005983
-0.004856
-0.001578
0.001692
0.001189
-0.007116
-0.02606
-0.039722
0.115109
0.341215
0.36799
-0.030804
-0.759429
-1.3865
-1.27054
-0.264156
0.993205
1.27965
-0.369414
-3.47518
-5.96726
-5.4771
-1.3623
3.87705
5.75288
0.762311
-10.133
-20.3473
-20.4545
-3.32984
31.2967
76.0288
119.383
151.148
166.897
168.288
160.072
146.274
128.478
107.178
84.4059
65.228
56.1708
61.5142
80.1661
105.067
125.953
134.047
125.919
104.581
77.66
53.8964
39.6871
37.1329
44.1923
56.0091
66.796
71.8753
69.4127
60.2671
47.5623
35.4212
27.5899
26.0345
30.5326
38.8202
47.7213
54.4812
57.6435
57.8265
57.4414
59.4497
65.4829
73.5715
78.0015
71.5578
49.9161
16.0419
-18.517
-37.7509
-29.5909
5.74836
52.7731
86.0582
83.774
40.5905
-26.5814
-85.4209
-105.198
-73.7054
-5.15278
66.9038
107.907
100.883
54.8196
-2.09249
-39.682
-42.3899
-15.6246
20.7302
46.0194
50.5469
38.0678
19.1571
2.1946
-11.355
-24.8213
-39.8229
-51.9735
-52.8057
-36.5318
-6.42716
25.3992
44.343
42.2881
22.6325
-1.64114
-15.7006
-11.2894
10.1434
40.1826
69.2942
91.6808
105.734
111.791
109.701
98.2441
76.4729
45.2651
7.38303
-33.5853
-73.8025
-108.485
-131.092
-133.436
-109.281
-59.007
7.36559
71.5741
114.274
123.866
101.93
62.6336
25.5557
6.0535
8.71388
26.5382
46.0769
55.1628
49.095
32.0096
13.8841
4.58049
8.51578
22.5143
38.1722
46.5751
43.5242
31.5185
18.2785
12.0212
16.5304
29.6255
44.7019
55.0139
57.3911
53.5062
48.2159
46.1759
49.3377
56.2874
63.4001
66.933
64.4562
55.7744
42.9084
29.9587
22.3799
25.1722
40.562
65.9116
93.7353
114.317
120.128
109.777
89.1855
68.9548
58.8769
62.8712
77.033
92.0309
98.4732
92.3013
77.0231
61.3544
54.2413
59.4477
73.6462
88.4431
95.864
93.3722
85.427
80.2867
84.2822
97.0501
111.186
116.626
107.513
86.6521
64.7261
54.2468
61.9952
84.6421
110.174
124.56
119.536
96.9178
67.2041
43.7916
36.0205
44.7957
63.2896
81.2875
90.3829
87.6601
76.1237
62.4483
53.1408
51.5074
56.6765
64.4656
69.8514
69.2016
61.7119
49.2279
34.8883
21.7759
11.9998
6.5034
5.51448
8.52748
14.1163
20.1249
24.1764
24.9571
23.4656
22.9013
27.3482
39.1148
56.9551
76.0863
90.2653
95.0157
89.9313
78.8093
67.4285
60.2584
58.1611
58.2516
55.9571
48.2872
36.2243
25.1219
22.4169
34.096
60.8964
96.8073
130.402
149.056
144.097
114.468
67.4744
16.1071
-26.0015
-49.4522
-51.6258
-36.4289
-11.7118
13.9923
34.2389
45.917
49.3518
47.2438
43.515
41.9529
44.7857
51.8399
60.7642
68.0078
70.753
68.5623
63.7555
60.1945
60.892
66.0871
72.6463
75.4965
70.4944
56.9729
38.7636
22.7819
15.8511
21.423
37.8346
58.9709
77.075
86.0756
84.1665
74.2886
62.5253
55.3351
56.5779
65.858
78.6613
88.994
92.5897
89.4526
84.0644
82.9106
90.5061
106.304
124.424
136.715
137.368
126.337
109.511
95.167
89.412
92.9784
101.472
108.534
109.832
104.894
96.3813
87.4937
79.7186
72.5089
64.8254
56.8378
50.2284
46.8998
47.2219
49.0758
48.957
44.1822
34.9671
24.5627
17.7177
17.8647
25.1526
36.3227
46.2959
50.7113
47.9697
39.8061
30.1558
22.9872
20.4771
22.1593
25.5249
27.8099
27.7422
26.1477
25.2406
27.0128
31.7062
37.5496
41.7279
41.9737
37.9
31.0349
23.7448
18.0829
14.8344
13.5842
13.4015
13.3851
12.8374
11.305
8.66223
5.19327
1.63971
-1.0356
-2.18905
-2.01978
-1.7115
-2.80095
-6.26773
-11.8446
-18.0292
-22.6784
-23.8418
-20.6
-13.3933
-4.08529
4.69789
10.1891
10.4818
5.23337
-3.83878
-13.3185
-19.3727
-19.3253
-12.9486
-2.80612
6.84574
12.0039
10.9788
5.78346
1.65823
5.04902
20.6502
48.6238
83.532
115.376
132.722
127.065
96.4909
47.1077
-8.50246
-55.4667
-82.1086
-83.7577
-64.254
-33.7169
-3.93913
16.579
25.5199
26.5998
26.4513
30.4136
39.4106
50.0307
57.2639
58.1097
53.8579
49.3784
50.0568
58.0182
70.4672
80.9789
83.1859
74.4091
57.2805
38.2123
24.0503
18.8792
22.3358
30.4208
37.8609
40.6052
37.3573
29.6577
20.9806
15.1664
14.999
20.9919
30.8383
40.3225
44.9979
42.2769
32.8306
20.4337
10.34
6.77133
11.1184
21.5594
34.2801
45.6294
53.5086
57.7513
59.2434
58.9513
57.1588
53.7587
48.8551
43.3917
39.0848
37.7591
40.4629
46.7721
54.4898
15.9897
24.4489
28.9085
26.7001
18.3974
7.61743
-0.775691
-2.92862
2.24671
12.8538
25.0277
34.6677
38.9768
37.3463
31.2699
23.5732
17.1247
13.9674
14.6428
18.1006
22.1804
24.3485
22.6643
16.7791
8.50209
1.4564
-0.327712
5.63073
18.5236
34.0764
46.4791
51.3755
48.3097
41.1699
36.0199
37.546
46.359
58.6421
68.5398
71.4787
66.6308
56.9566
47.2902
41.602
41.0311
43.8015
46.6331
46.8443
43.913
39.6939
37.2954
39.2366
45.669
53.9419
59.732
59.4383
52.3343
41.302
31.2607
26.3427
27.424
31.7037
34.654
33.0278
26.9338
19.5527
14.599
13.6437
15.1394
15.8441
13.5238
9.0569
6.02457
8.31345
17.2817
30.411
42.4628
48.4718
46.4841
38.4168
28.7392
21.754
19.3734
20.6741
23.1324
24.4964
24.0028
22.2062
20.1079
18.2427
16.5524
15.0387
14.4109
15.8468
19.8876
25.471
30.0721
31.0662
27.7481
22.3074
18.8958
21.0659
29.1958
39.7236
46.9077
46.2985
37.7148
25.6866
16.9582
16.5126
24.6635
36.9602
46.965
50.0688
45.9352
38.3109
32.2724
31.1255
34.8886
41.0775
46.9378
51.4706
55.4355
59.8771
64.3226
66.3193
63.0847
54.288
43.7359
38.7713
46.8029
70.7441
106.124
141.616
163.403
161.173
132.802
85.349
32.1063
-12.7661
-39.3924
-44.6773
-31.6826
-6.9246
22.4841
50.5618
72.7626
85.6492
87.1176
77.1074
58.4641
36.684
18.2029
7.77718
6.28057
10.3723
14.5584
14.4553
9.26502
2.08346
-2.0249
1.09028
12.4893
29.6834
47.881
62.0596
68.4034
65.2303
53.3385
35.8834
18.1831
6.582
6.0613
17.7461
37.566
57.3953
68.8681
67.9338
57.4064
45.9918
43.5958
55.3835
78.2779
101.915
114.076
107.644
85.0704
57.6882
39.9882
41.9484
63.5203
94.5253
119.914
127.705
114.998
89.0248
62.6139
47.0767
46.6043
56.8669
68.502
72.9335
66.9668
53.8584
40.5566
33.1755
33.6818
39.4937
45.517
47.206
42.6823
33.1499
21.6487
11.3857
4.47776
1.62075
2.38356
5.93071
11.5414
18.6132
26.6121
34.807
42.0642
47.1239
49.0756
48.0942
45.7992
44.8019
47.5334
54.7066
64.5435
73.1171
76.0033
70.5492
57.3718
40.3536
24.8447
15.0625
12.1476
14.0846
17.199
18.5627
17.6268
16.2985
17.2824
22.0893
29.7689
37.3725
41.6955
41.1553
51.0978
61.6325
62.936
54.5501
40.8716
28.8167
23.8632
27.284
35.9857
44.7631
49.5362
49.5191
46.996
45.3163
46.4889
49.9271
53.1229
53.8453
52.03
50.136
51.3
56.8505
64.7869
70.4399
69.1986
59.6945
45.2878
32.4563
26.9177
30.1979
38.6309
45.888
47.3024
42.8636
37.106
35.6197
40.6541
48.9407
53.6383
49.0177
34.5282
15.8742
1.97305
-0.373791
9.5174
25.9869
40.2736
45.4896
40.1581
28.3663
17.0064
12.0635
16.0674
28.0351
45.2808
65.6793
88.3715
112.991
138.145
160.016
172.899
171.386
153.141
120.523
80.7124
43.5135
17.8908
9.05041
16.6375
35.3242
57.154
74.9245
85.1432
88.7885
89.7882
92.3421
98.6366
107.94
117.741
125.622
130.184
130.892
127.404
119.082
105.968
89.8738
74.8121
65.5118
65.1425
73.2309
85.6702
97.0035
103.442
104.477
102.116
98.8449
95.475
90.9165
84.0676
75.8087
69.4553
68.9995
76.4226
90.2155
106.23
120.146
129.408
133.439
132.623
126.803
115.038
97.0635
75.2498
55.0353
43.6585
47.0048
66.1847
96.0014
126.334
146.507
150.171
138.583
120.364
107.077
106.822
119.402
136.057
144.169
134.628
107.525
72.5987
43.9144
32.4045
40.1083
59.8897
80.4306
93.2044
96.8019
96.5208
99.5845
109.594
123.656
133.693
131.322
112.548
80.5341
44.8117
17.0926
6.36006
15.3822
40.1246
71.862
100.983
120.137
125.962
118.602
100.402
74.9004
46.6816
22.0103
8.03619
10.4738
30.3152
61.407
91.4134
107.093
100.89
75.5091
43.3788
20.8912
19.918
41.3521
74.6813
103.641
114.667
103.666
77.1748
48.5734
30.1994
27.5603
37.4005
50.5416
57.9909
56.1156
48.2307
41.9518
43.8252
54.6247
68.4225
75.9721
70.5547
53.0508
32.265
20.8232
28.0953
54.5238
90.9415
122.835
137.637
131.011
108.628
82.6831
65.4589
62.8191
72.6872
86.5263
94.9729
93.0492
81.8461
67.1927
55.3521
49.4595
48.605
49.7112
50.4423
51.0439
53.2557
57.5161
60.9754
58.7804
48.2533
32.7116
21.5158
25.4068
48.9088
85.6619
120.079
136.363
127.635
100.895
72.8116
59.1408
65.0862
82.758
97.422
97.8888
84.0386
66.2222
57.5916
65.0069
84.7408
105.668
116.699
113.254
98.8295
81.4435
68.3638
62.667
63.4976
68.6517
76.7615
87.3939
99.7044
110.875
116.911
114.074
101.256
80.9184
57.8936
37.6208
23.9599
18.1988
18.8443
22.7316
26.5739
28.4287
28.5085
28.6246
30.6702
34.955
39.8138
42.6339
41.805
38.6877
37.3214
41.8694
53.6348
70.0301
85.8262
96.6854
102.109
105.649
112.094
123.488
136.953
145.828
144.01
130.306
110.048
92.6974
86.9305
95.8812
115.817
138.11
153.336
156.141
147.174
131.913
117.612
109.83
110.165
116.101
122.941
126.782
126.319
123.301
120.75
120.375
120.955
119.107
111.917
99.5236
85.0939
73.0572
65.8475
62.0227
57.3236
47.8223
32.8648
15.8929
2.5599
-2.82631
0.280834
8.61274
17.0596
21.1821
19.0699
12.2139
5.34449
5.63836
20.8447
56.1441
110.37
173.828
229.949
261.142
256.712
218.519
160.956
104.614
67.0629
55.6047
66.4421
88.726
110.75
125.355
130.946
129.623
124.92
120.049
117.24
117.292
119.186
120.103
116.91
108.759
98.9929
94.0546
99.2011
113.524
127.886
129.152
107.732
65.0461
14.6547
-24.2984
-37.7919
-25.2283
0.299164
20.2659
22.0737
5.93635
-16.7562
-32.0798
-32.9584
-22.7
-10.7978
-4.67719
-3.78768
-0.200238
15.0635
44.689
82.3036
115.914
135.043
136.554
125.489
110.949
100.378
96.1124
95.7239
95.096
92.0111
87.1521
82.9588
81.4393
82.5334
84.3641
84.9207
83.3445
80.273
77.0156
74.4374
72.2922
69.5694
65.5186
60.4465
55.615
52.4469
51.5027
51.7057
51.0726
47.8269
41.5351
33.4763
25.9895
21.2166
19.8969
21.1119
22.9537
23.7209
22.8149
20.9054
19.2844
19.0313
20.3635
22.5843
24.5911
25.5017
25.1237
24.1078
23.421
23.8756
25.6257
28.086
30.2644
31.414
31.4177
30.7224
29.9251
29.2606
28.4487
27.0245
24.8195
22.344
20.6094
20.456
21.9381
24.1608
25.8491
26.1313
25.148
23.7748
22.9195
22.8
22.9953
22.9629
22.6195
22.4758
23.0335
24.1082
24.6274
23.516
21.0369
19.696
23.6328
36.489
58.7029
86.0473
110.304
122.439
116.674
93.4921
59.6914
25.6416
0.930548
-9.58612
-7.14998
2.38088
12.011
17.0944
17.0363
14.668
13.7775
16.5375
22.2615
28.157
31.2662
30.3774
26.6956
23.0585
22.0766
24.5959
29.1854
32.9953
33.4326
29.5806
22.6704
15.4005
10.5908
9.82681
12.9311
18.1319
23.0583
25.6991
25.2179
22.0619
17.6484
13.6873
11.5024
11.549
13.3203
15.6868
17.4425
17.8898
17.1402
16.0169
15.448
15.956
17.2075
18.2295
18
16.1581
13.2856
10.6495
9.57301
10.6268
13.2881
16.1942
17.8996
17.6919
15.9692
14.0355
13.3225
14.5079
17.1601
19.9306
21.1861
19.9208
16.216
11.362
7.22035
5.38475
6.47801
9.86245
13.9575
17.0289
17.9361
16.5931
13.8841
11.1197
9.41693
9.19808
10.1194
11.4175
12.4572
13.0849
13.682
14.7
16.2113
17.6823
18.2815
17.4572
15.4891
13.57
13.1211
15.0317
18.9494
23.3073
26.0961
26.0087
23.2272
19.3625
16.5696
16.3052
18.4828
21.5962
23.6027
23.004
19.6043
14.4979
9.44305
6.01331
5.07145
6.50885
9.45645
12.7524
15.1912
15.9944
14.8783
12.181
8.68085
5.25875
2.52468
0.590245
-0.792785
-1.81285
-2.07893
-0.330388
5.38749
16.8957
34.8695
57.9223
82.2331
102.28
112.407
108.815
91.2321
63.4328
32.2631
5.50153
-10.725
-14.0063
-6.21415
7.6203
21.4401
30.549
33.1258
30.3352
25.2512
21.1782
20.1883
22.3948
26.2211
29.4139
30.183
28.1256
24.3053
20.5259
18.3946
18.4981
20.206
22.2256
23.4458
23.482
22.6558
21.5815
20.4939
19.1847
17.2646
14.7632
12.4861
11.6918
13.2213
16.7419
20.7144
23.2469
23.3072
21.5362
19.9434
20.5062
23.7009
27.8913
30.1093
27.8972
21.0522
12.1192
5.15362
3.56783
8.16895
16.7024
25.0394
29.29
27.6293
20.9531
12.2214
4.92531
1.57965
2.86087
7.61579
13.5616
18.3455
20.4704
19.7721
17.3126
14.6752
13.1796
13.1508
13.8556
14.0804
13.0449
10.9456
8.92454
8.29297
9.62553
12.3182
14.9662
16.3372
16.2303
15.5906
15.8018
17.7393
21.0558
24.3027
25.8202
24.6856
21.3363
17.2194
13.9396
12.3049
11.9342
11.6754
10.5651
8.60758
6.9249
7.08285
10.0736
15.4474
21.3311
25.3399
25.8402
22.8687
18.1404
13.999
12.0675
12.4425
13.7659
14.3258
13.2064
10.8901
8.90994
8.73549
10.7759
13.8952
16.0838
15.5795
12.0825
7.09226
3.16655
2.32223
4.73727
8.46912
10.6316
9.51108
6.33771
5.40655
12.0615
29.5102
56.2216
85.5199
108.028
115.83
106.072
82.1084
51.8352
24.0797
5.2714
-2.30616
-0.201219
7.84616
-0
-2e-006
-9e-006
-2.5e-005
-4.8e-005
-6.6e-005
-6.6e-005
-4.6e-005
-2.5e-005
-4.6e-005
-0.000132
-0.00026
-0.000356
-0.000338
-0.000197
-3.7e-005
-3.1e-005
-0.000296
-0.00075
-0.001105
-0.001027
-0.000417
0.00037
0.000548
-0.000772
-0.003454
-0.000204
0.012352
0.039768
0.050449
0.012215
-0.092823
-0.216736
-0.243623
-0.092623
0.168155
0.312702
0.109564
-0.471908
-1.09304
-1.23517
-0.565694
0.632682
1.45474
0.941723
-1.12179
-3.62879
-4.47854
-1.74089
4.94276
13.7613
21.4698
25.2019
24.1786
20.2836
16.9007
16.7915
20.2933
25.0749
27.6522
25.611
19.1565
10.9373
4.3718
1.65535
2.71492
5.68381
8.47311
10.0809
10.9799
12.3139
14.6741
17.4536
19.2642
19.0065
16.8002
14.1221
12.908
14.3408
17.9818
21.976
24.0546
22.8215
18.5428
12.9411
8.3505
6.63635
8.46349
13.1234
18.944
23.9818
26.8691
27.2933
26.0278
24.484
23.8448
24.4332
25.6189
26.3736
26.1427
25.3519
25.1395
26.4063
28.7122
30.1738
28.4036
22.2844
13.2225
4.92783
1.51074
5.08717
14.4603
25.5638
33.7661
36.3744
33.9036
29.4055
26.3383
26.4193
28.7852
30.788
29.9225
25.6385
20.1112
17.5142
22.1094
36.0644
57.961
82.6504
102.742
111.318
104.776
84.4945
56.4632
28.8116
8.5739
-0.911971
-0.565194
5.8001
13.8339
20.606
25.214
28.0949
29.8422
30.5651
30.009
28.2145
26.0259
24.8221
25.7741
28.9725
33.2212
36.5871
37.3554
34.9119
30.0648
24.6901
20.8523
19.8617
21.5121
24.1401
25.6149
24.4285
20.7393
16.317
13.5
13.6873
16.3963
19.6389
21.2204
20.3145
18.1395
17.1412
19.32
24.7902
31.5575
36.5422
37.4511
34.0143
28.0139
22.2312
18.944
18.9142
21.2764
24.2574
26.2438
26.4983
25.4483
24.3009
24.3075
26.1414
29.5194
33.4388
36.7454
38.73
39.3462
38.9507
37.8117
35.7205
32.1546
26.8442
20.3678
14.149
9.82203
8.221
8.82157
10.046
10.2713
8.97797
7.05678
6.19964
7.76549
11.6992
16.5026
20.0592
20.8539
18.8413
15.5248
13.1495
13.3716
16.3745
20.7727
24.3201
25.1747
22.8395
18.4192
13.8661
10.9446
10.3502
11.5159
13.2452
14.5651
15.2592
15.6415
15.951
15.8994
14.7864
12.2383
8.938
6.59083
7.11088
11.2576
17.8623
24.1834
27.2959
25.7995
20.7742
15.1824
12.1808
13.2445
17.3431
21.563
22.9408
20.2721
14.8505
9.62947
7.53196
9.62474
14.5286
19.2154
20.8464
18.5244
13.8371
9.90611
9.37215
12.5802
17.2641
19.9995
18.7613
14.8742
12.975
18.6129
34.6477
58.6949
83.2148
98.6346
97.9257
80.2932
51.7827
22.3922
1.39729
-6.59733
-2.97207
6.71977
16.2171
21.6361
22.5736
21.1382
19.9302
20.3291
22.0887
24.0649
25.3087
25.6824
25.6636
25.7288
25.9309
25.9621
25.5613
24.8359
24.2058
23.9346
23.8431
23.3515
21.9594
19.7083
17.4557
16.4175
17.4144
20.3075
23.9353
26.7206
27.5339
26.2514
23.7503
21.3537
20.1046
20.3439
21.7213
23.5417
25.2227
26.5392
27.5858
28.6206
29.8689
31.3488
32.8392
34.0637
34.8067
34.9107
34.293
32.9592
31.0668
29.0841
27.7052
27.4966
28.4711
29.8725
30.4362
29.1271
25.9102
22.0145
19.3389
19.2563
21.5486
24.3345
25.0373
22.1093
16.1707
9.83826
6.2718
7.23707
12.0506
18.0265
22.1055
22.6209
20.0875
16.6586
14.6245
15.0749
17.4923
20.3934
22.4343
23.125
22.8696
22.3804
22.0296
21.7211
21.1776
20.3422
19.5444
19.1897
19.3617
19.6646
19.5062
18.5174
16.99
15.7589
15.6282
16.686
18.0944
18.5107
17.0241
13.9736
10.9398
9.78644
11.4853
15.4123
19.6374
22.1354
22.0585
20.1831
18.3063
17.9894
19.4875
21.6762
22.8838
22.0776
19.5307
16.5819
14.7169
14.5112
15.4191
16.3066
16.2633
15.1523
13.5899
12.393
12.0386
12.5032
13.4472
14.5482
15.7274
16.831
17.3401
16.3348
12.9686
7.3512
1.28825
-1.75901
2.20207
15.63
37.5574
63.0143
84.3387
94.0242
87.9573
67.3646
38.3873
9.51946
-11.8766
-22.1095
-21.7397
-14.1333
-3.37346
7.32979
16.2017
22.5297
26.1167
27.1104
26.0775
24.0508
22.1523
21.1022
20.9484
21.2816
21.8115
22.7307
24.5057
27.2614
30.2545
32.0266
31.2938
27.9669
23.4528
19.8888
18.9773
20.8955
24.2617
27.0655
27.8402
26.3401
23.5102
20.7489
19.1848
19.3264
21.0658
23.85
26.8284
29.0324
29.7559
28.9914
27.5747
26.9107
28.1978
31.4825
35.2842
37.3624
36.067
31.5225
25.6421
21.0326
19.3924
20.6386
23.1807
25.1176
25.498
24.6666
23.6549
23.237
23.3634
23.464
23.0662
22.2519
21.4538
20.7785
19.7009
17.4207
13.6811
9.4186
6.48991
6.63961
10.414
16.7585
23.6053
28.9841
31.9018
32.4246
31.1792
28.7986
25.7962
22.8514
20.9512
21.209
24.0777
28.7904
33.4261
35.7882
34.6093
30.2895
24.6574
19.9953
17.7965
18.2521
20.5384
23.4484
25.9351
27.336
27.2603
25.5898
22.557
19.0034
16.2451
15.5475
17.3443
20.7981
24.1335
25.6072
24.6028
22.0433
19.8038
19.4841
21.2974
23.8988
25.3405
24.3513
21.2187
17.6431
15.6354
16.2266
18.8248
21.4768
22.1068
19.6992
14.9078
9.71658
6.24428
5.66575
7.68128
10.914
13.777
15.3988
15.8049
15.5803
15.0716
14.0391
12.1027
9.66847
8.68926
12.4254
23.8101
43.2736
67.1802
88.3918
98.8572
93.1866
71.3106
38.8953
5.12885
-20.9284
-33.8012
-33.0703
-22.6665
-8.51281
4.00688
11.8192
14.5125
13.5337
11.0705
8.94179
8.06774
8.45312
9.54285
10.6958
11.6472
12.6011
13.9908
16.0502
18.4798
20.44
20.9754
19.6423
16.8976
14.0069
12.3975
12.8479
14.9241
17.28
18.5295
18.2351
17.1658
16.7687
18.0216
20.6149
23.0503
23.7056
22.1211
19.4742
17.871
18.8727
22.2703
26.1741
28.2622
27.511
25.0016
23.1972
24.1234
27.8013
32.1688
34.475
33.1389
28.9073
24.293
21.8674
22.5572
25.2901
27.913
28.7044
27.4127
25.0302
22.7065
20.6696
18.1414
14.2689
9.29228
4.9219
3.5624
6.8502
14.3738
23.6065
30.9705
33.6456
30.8449
24.2355
17.0341
12.531
12.6634
17.3273
24.5871
31.6096
35.8451
35.9642
32.3539
26.9048
22.2233
20.5791
22.9546
28.5617
35.2616
40.57
42.6816
41.2864
37.4075
32.696
28.485
25.184
22.2846
19.0288
15.2761
11.9259
10.4944
12.2432
17.1459
23.6526
29.4481
32.7378
33.1794
31.9647
30.7736
30.5519
30.9541
30.7164
28.8347
25.4997
22.0741
20.1129
20.1174
21.1701
21.6192
20.5157
18.4534
17.3004
18.7027
22.6284
26.9951
28.7912
26.0761
19.4723
12.0696
7.67037
8.54328
13.9327
20.4761
24.1293
22.598
16.7755
10.5686
9.0219
15.9893
32.3094
55.0905
78.6617
96.4036
102.927
95.8501
76.6087
49.9253
22.2304
-0.359378
-13.7317
-16.8108
-11.3863
-1.18005
9.58752
17.6812
21.6201
21.6643
19.3329
16.504
14.6178
14.351
15.5365
17.5324
19.6195
21.316
22.4918
23.2209
23.6086
23.6221
23.278
22.6662
22.0616
21.8088
22.1289
22.9539
23.9377
24.6131
24.6057
23.8487
22.635
21.5319
21.1772
22.0913
24.4945
28.2242
32.6805
36.9734
40.1102
41.3263
40.3188
37.3538
33.3016
29.5039
27.4753
28.3978
32.6854
39.5821
47.1314
52.7442
54.3346
51.2652
44.7343
37.2679
31.3937
28.4752
28.1586
28.7708
28.5105
26.5423
23.421
20.6079
19.4664
20.434
22.7022
24.7699
25.2402
23.477
19.8399
15.396
11.4629
9.05008
8.57229
9.77133
11.9045
14.0449
15.5235
16.0721
15.7922
14.9975
14.0719
13.3673
13.0902
13.3348
14.0715
15.1578
16.3524
17.4319
18.2672
18.9303
19.6805
20.8229
22.5045
24.5347
26.448
27.6402
27.6728
26.4532
24.1472
21.0604
17.5059
13.8105
10.3314
7.58615
6.16023
6.4814
8.52176
11.6007
14.5409
16.1532
15.9515
14.4644
13.1144
13.4763
16.3418
21.1653
26.2336
29.4906
29.5894
26.6044
21.9193
17.4223
14.5031
13.4165
13.3163
12.9548
11.5566
9.2647
6.86202
5.2025
4.68866
5.18635
6.27454
7.53912
8.61015
8.96166
7.76681
4.37935
-0.758
-5.35161
-5.37116
3.36958
22.7665
50.3379
79.05
99.602
104.33
90.8368
63.2512
30.5667
2.74068
-13.2811
-15.9188
-8.62608
2.56505
12.0937
17.0433
17.5758
15.817
14.143
13.8484
14.7374
15.7296
15.7705
14.5784
12.7045
11.067
10.2765
10.2653
10.4772
10.4209
10.1959
10.4386
11.7707
14.1032
16.4039
17.2327
15.7496
12.4413
9.08716
7.81987
9.84839
14.668
20.2102
23.9563
24.3582
21.548
17.2658
13.8534
13.0378
15.1842
19.255
23.5908
26.7753
28.3077
28.6728
28.877
29.6868
31.0546
32.1801
32.105
30.5892
28.5293
27.5695
29.0389
32.9291
37.6206
40.5601
39.6495
34.4884
26.6159
18.7894
13.6859
12.6783
15.3738
20.0259
24.4115
26.6688
25.8893
22.2437
16.8168
11.2848
7.33082
6.05355
7.57052
11.0285
15.1165
18.716
21.4084
23.452
25.315
27.1879
28.7752
29.5174
29.14
27.9787
26.7809
26.2555
26.5019
26.8615
26.3812
24.5218
21.7687
19.4636
19.1131
21.3824
25.4573
29.3205
30.7878
28.7848
24.1494
19.3603
17.2762
19.447
25.0462
31.136
34.2647
32.4216
26.2402
18.6775
13.2801
12.2397
15.2538
19.858
23.0385
23.0928
20.5252
17.5416
16.5225
18.4792
22.4595
-0
-1e-006
-3e-006
-1.5e-005
-3.6e-005
-5.9e-005
-6.6e-005
-5.3e-005
-3.4e-005
-3.6e-005
-8.3e-005
-0.000174
-0.000269
-0.000308
-0.00026
-0.000164
-0.000122
-0.000233
-0.000504
-0.000803
-0.000921
-0.000708
-0.000239
0.000103
-0.000293
-0.001921
-0.00367
-0.002439
0.030933
0.058695
0.041445
-0.04815
-0.165513
-0.21993
-0.153291
0.023171
0.184967
0.154409
-0.153782
-0.619681
-0.903901
-0.716909
-0.075637
0.597741
0.663346
-0.255699
-1.85891
-3.10709
-2.58521
0.685621
6.67135
14.1547
21.1636
25.7479
26.769
24.2891
19.4961
14.2605
10.5122
9.63549
12.185
17.6059
24.3526
30.3604
33.7655
33.6783
30.5793
26.1254
22.3892
20.7929
21.4334
23.1899
24.5198
24.6013
23.9934
24.2824
26.9161
31.861
37.3343
40.5983
39.9101
35.8627
31.5137
30.6453
35.3022
44.1974
53.0949
57.1423
53.796
44.4608
33.9351
27.7518
29.0869
36.9219
46.5808
52.1831
49.6787
38.9391
23.9163
10.7671
5.08459
9.55452
22.7908
39.8267
54.0323
59.802
54.7997
40.9459
23.5825
9.217
2.85425
5.85457
15.5666
26.7678
34.1774
34.8785
29.3644
20.9571
13.8775
10.9872
12.6435
16.9732
21.2854
23.9117
25.2272
27.2032
31.9441
40.0493
49.6336
57.0328
58.8513
53.8213
43.8957
33.3862
26.8031
26.4973
31.499
38.2985
43.0837
44.0015
42.0712
40.1192
40.409
42.6186
43.7323
39.8963
29.1633
13.296
-2.77611
-13.5062
-15.7367
-10.197
-0.80294
7.74215
12.4179
13.2691
12.8091
14.1913
19.5601
28.8439
39.7803
48.7762
52.3947
48.715
38.2077
24.12
11.4755
5.14426
7.65725
17.7406
30.9756
42.0399
47.3975
46.8934
43.2499
39.6311
37.4345
35.4373
31.109
23.3994
14.7592
10.266
14.9067
29.8141
50.487
68.2353
74.5556
66.0736
46.9428
27.001
16.3076
19.1931
31.3687
42.3114
41.8367
27.1846
6.09595
-6.49599
2.96734
37.469
85.5957
125.84
137.278
111.001
55.6558
-6.22425
-49.6745
-59.944
-39.0069
-2.97125
28.0098
40.9534
36.0558
24.0211
17.2495
21.3858
32.151
39.3605
35.054
19.6515
2.46852
-4.04196
7.59187
34.762
65.7903
86.2774
87.0664
68.5704
39.8662
13.4813
-0.754118
0.028513
11.8343
27.0036
38.5679
43.3748
42.6047
39.9743
38.7671
40.0196
42.2576
43.1283
41.7683
40.0222
41.5236
49.1031
62.2356
76.7432
87.0203
89.6391
85.8843
80.9168
80.0588
84.5248
89.9316
89.2144
77.9629
58.5191
39.637
31.5044
39.1045
58.7104
79.8864
91.7118
89.384
76.7135
63.1544
57.3862
61.9801
72.0203
78.5947
74.6554
59.3514
38.5875
21.533
15.57
22.4474
37.6895
53.2651
61.9505
60.9182
52.8265
43.8404
39.9464
43.5659
52.3965
60.8476
63.3797
57.6678
46.2292
35.2415
31.2946
37.9087
53.5204
72.0608
85.8857
89.4494
82.1245
68.3021
54.8661
47.5677
48.1221
53.4045
57.8384
56.776
49.4208
39.2564
31.8404
31.5266
39.2077
52.2284
66.5564
78.8351
87.7864
93.9571
98.4843
102.196
105.33
107.942
109.956
110.616
108.126
100.014
84.5497
62.3213
36.9879
14.2446
-0.769702
-5.84309
-2.41083
5.71171
14.9105
23.7884
33.3763
45.684
61.7306
80.2198
97.7516
110.458
115.62
112.692
103.296
90.4269
77.4418
67.0953
61.0728
59.6527
61.7701
65.4682
68.6557
70.3132
71.7152
76.1054
87.5131
108.187
136.326
165.318
185.456
187.664
167.722
128.732
80.6133
36.1177
6.05696
-4.65838
1.87665
18.4676
36.4486
49.2117
54.0652
51.9822
45.9643
39.0572
33.0413
28.0103
22.9533
16.9207
9.8719
3.04345
-1.48871
-1.87761
2.44474
10.3125
19.255
26.5601
30.4815
30.7837
28.4232
24.8639
21.2831
18.2128
15.6675
13.5437
11.8673
10.659
9.85129
9.27526
8.88902
8.9778
10.1916
13.1728
18.0638
24.1787
30.1428
34.4799
36.2816
35.6532
33.5788
31.3841
30.0846
29.9647
30.5699
31.032
30.5425
28.7001
25.5996
21.7442
17.8252
14.5065
12.2606
11.2842
11.4642
12.3578
13.2805
13.4785
12.3724
9.84597
6.34673
2.76701
0.096553
-1.02497
-0.543746
1.04183
3.03872
4.86386
6.25579
7.15936
7.52381
7.16771
5.88675
3.71503
1.12246
-1.0474
-1.96225
-1.25053
0.696399
2.85291
4.10184
3.79559
2.15887
0.12808
-1.20033
-1.18764
-0.033529
1.41269
2.17491
1.78732
0.595548
-0.541115
-0.855108
-0.186411
0.789698
1.03712
-0.106355
-2.3914
-4.68767
-5.6327
-4.47788
-1.64352
1.53176
3.65022
4.16541
3.74122
3.77078
5.33449
8.35229
11.5334
13.2113
12.4762
9.89289
7.21985
6.31887
7.9543
11.2395
14.0913
14.5019
11.7165
6.59884
1.17894
-2.51711
-3.5947
-2.51217
-0.587149
1.00406
1.9509
2.74787
3.98233
5.47103
5.9943
4.07709
-0.578046
-5.83843
-7.11311
0.900739
21.3516
52.6721
87.8772
116.55
128.77
119.341
90.1927
49.6596
9.15302
-21.2551
-36.2834
-36.4625
-26.7578
-13.6617
-2.49381
4.154
6.37376
5.83251
4.42081
3.33749
2.8738
2.76054
2.66554
2.49674
2.3943
2.52615
2.89412
3.29464
3.50405
3.41818
3.12436
2.81183
2.66923
2.69843
2.8182
2.99842
3.241
3.63772
4.20601
4.88382
5.55169
6.19702
6.97522
8.1673
10.029
12.6238
15.7413
19.0116
22.0414
24.5432
26.3737
27.5714
28.3381
29.0349
30.0884
31.7957
34.1252
36.6392
38.6593
39.5977
39.2439
37.8743
36.0117
34.1441
32.5202
31.1708
30.0941
29.3713
29.1145
29.2591
29.4303
29.0478
27.657
25.228
22.2125
19.2508
16.7824
14.7999
12.9415
10.8393
8.45892
6.15712
4.42443
3.52792
3.32532
3.3745
3.28766
3.00996
2.82073
3.09257
3.91101
4.96138
5.68649
5.6943
5.03355
4.18977
3.78594
4.14605
5.05991
5.89528
6.00662
5.13631
3.61012
2.14526
1.42033
1.63975
2.38273
2.86257
2.47225
1.21866
-0.217487
-0.864864
-0.117582
1.80625
3.91455
5.04782
4.6853
3.38167
2.50942
3.37513
6.3264
10.4117
13.8937
15.311
14.368
12.0343
9.83744
8.86855
9.07376
9.4673
8.94928
7.21562
4.90606
3.21972
2.95339
3.89363
4.93567
4.84987
3.23946
0.926209
-0.574114
-0.207711
1.58091
2.76993
0.960521
-4.60612
-11.3758
-13.5412
-4.31174
20.3409
58.33
100.511
133.378
144.4
127.657
86.9027
34.2765
-14.6535
-47.1755
-57.9827
-50.034
-31.7909
-12.7211
0.62632
6.23944
5.90861
3.09102
0.79698
0.449336
1.84784
3.88054
5.33903
5.52272
4.45104
2.75726
1.33369
0.878326
1.61506
3.1202
4.6399
5.48571
5.47287
4.90693
4.4772
4.72279
5.74677
7.17897
8.42869
9.08901
9.16644
9.03567
9.22634
10.1373
11.9289
14.5681
17.8811
21.6386
25.522
29.1152
31.9776
33.8377
34.7564
35.1452
35.5231
36.2181
37.1345
37.7806
37.5957
36.3066
34.1274
31.6448
29.5154
28.1373
27.5464
27.5494
27.9772
28.8181
30.1193
31.7428
33.1427
33.5176
32.1268
28.7479
23.9007
18.6801
14.2282
11.1988
9.49643
8.41945
7.18776
5.41405
3.31724
1.49866
0.547284
0.66883
1.64079
3.02162
4.47252
5.89662
7.37384
8.92897
10.3563
11.3144
11.607
11.418
11.2645
0
-0
-1e-006
-2e-006
-2e-006
-3e-006
-7e-006
-1.4e-005
-2.3e-005
-3e-005
-3.1e-005
-3.1e-005
-3.6e-005
-5.5e-005
-8.9e-005
-0.000126
-0.000147
-0.000143
-0.000125
-0.000126
-0.000175
-0.000272
-0.000379
-0.000438
-0.000427
-0.000404
-0.000284
0.001729
0.001812
-0.001262
-0.003807
0.003419
0.012169
0.01262
-0.008395
-0.045191
-0.07214
-0.065078
-0.019842
0.01965
0.007669
-0.094414
-0.24892
-0.34759
-0.300005
-0.117748
0.064725
0.063494
-0.201369
-0.584329
-0.721048
-0.20553
1.17199
3.27152
5.67192
7.88364
9.60767
10.8592
11.8883
12.9522
14.0815
15.0633
15.5629
15.3891
14.6406
13.7047
13.0725
13.0644
13.6191
14.3086
14.5191
13.7944
12.0999
9.92807
8.0662
7.17816
7.37722
8.1009
8.3962
7.52096
5.46359
3.04712
1.45786
1.53553
3.20087
5.53073
7.33419
7.89381
7.40131
6.76868
6.97638
8.38554
10.5126
12.3751
13.1035
12.4914
11.1021
9.89632
9.64778
10.5245
11.9937
13.1197
13.0228
11.3343
8.30909
4.80599
1.87741
0.297374
0.272373
1.40694
2.99641
4.47705
5.63034
6.48141
6.86351
6.15105
3.57757
-0.828831
-5.15679
-5.32745
3.67967
25.2432
58.2893
95.9882
127.164
140.356
128.797
93.8469
45.001
-3.71456
-39.3527
-54.8816
-51.1083
-35.0406
-15.9187
-1.03571
6.59378
8.05637
6.56235
5.14484
5.2126
6.46785
7.76194
8.1562
7.45379
6.10461
4.80328
4.05679
3.996
4.4656
5.16366
5.76453
5.99819
5.73195
4.95446
3.94603
3.20961
3.28745
4.56363
7.03557
10.3103
13.7804
16.9064
19.4492
21.4968
23.2931
25.0183
26.6355
27.9918
28.9689
29.6556
30.3487
31.4047
32.9879
34.9586
36.9281
38.4825
39.3762
39.6356
39.519
39.3506
39.3457
39.529
39.7541
39.7593
39.3086
38.2773
36.6869
34.6535
32.3634
29.9974
27.6709
25.3853
23.0343
20.4266
17.3212
13.607
9.42019
5.22236
1.7486
-0.231243
-0.26113
1.56881
4.58982
7.80335
10.2802
11.56
11.767
11.4596
11.2693
11.5548
12.2841
13.1514
13.8635
14.3455
14.7614
15.3205
16.024
16.5604
16.4248
15.2529
13.1771
10.8403
9.16982
8.90094
10.1552
12.3686
14.573
15.867
15.8499
14.7396
13.1266
11.6183
10.5926
10.1049
10.0165
10.129
10.2752
10.3017
10.1091
9.67814
9.1517
8.81862
8.9777
9.75433
11.0335
12.545
14.0413
15.484
17.0477
18.909
21.0244
23.0583
24.5981
25.4149
25.6047
25.4773
25.2215
24.6455
23.232
20.5577
16.7904
12.8656
10.0425
9.24364
10.4045
12.3207
13.3082
12.2218
9.25147
5.9477
4.38908
5.77658
9.41362
12.7676
12.8412
8.40697
1.75671
-1.31483
6.27312
29.1443
65.9949
108.476
143.554
158.593
146.885
110.834
61.1903
12.5926
-22.4108
-37.8559
-35.5274
-22.6181
-7.58782
3.54926
8.85169
9.70321
8.75681
7.99778
7.9238
7.9289
7.28745
5.90496
4.46597
3.95508
4.95823
7.26783
9.978
11.9682
12.489
11.5563
9.92094
8.67295
8.58645
9.82731
11.972
14.2583
16.0143
16.9542
17.1749
17.0131
16.8858
17.2072
18.3229
20.458
23.6252
27.5641
31.7564
35.5938
38.5563
40.3999
41.2065
41.299
41.1303
41.1587
41.7092
42.8968
44.5674
46.3237
47.6391
48.0668
47.4163
45.8567
43.8463
41.9532
40.6315
40.0431
40.0717
40.4024
40.6669
40.5544
39.8247
38.2594
35.6543
31.9177
27.1701
21.8944
16.8872
13.0279
10.948
10.6654
11.5446
12.549
12.7766
11.8698
10.196
8.60558
7.86833
8.20514
9.18082
10.0251
10.1856
9.68832
9.09982
9.13304
10.1765
12.0354
14.03
15.4321
15.8325
15.2835
14.1921
13.0517
12.1975
11.7435
11.574
11.4562
11.1535
10.4892
9.49779
8.45011
7.77356
7.79167
8.519
9.5566
10.3135
10.3595
9.73045
8.88571
8.32602
8.17662
8.10327
7.60796
6.53488
5.37328
4.99594
6.0152
8.15799
10.2239
10.822
9.27717
6.22719
3.35235
2.4073
4.1043
7.64098
11.2127
13.1069
12.6235
10.3679
7.74429
6.06994
5.88514
6.82704
8.05843
8.83126
8.87579
8.4374
8.09065
8.44077
9.86289
12.3461
15.4179
18.2504
20.0385
20.4482
19.9005
19.4772
20.3765
23.1643
27.2719
31.1686
33.0786
32.0141
28.3161
23.5365
19.5595
17.6141
17.7086
18.7099
19.1708
18.2614
16.3423
14.7715
15.1083
18.0247
22.594
26.4231
26.7749
22.4089
15.1422
10.1782
14.447
33.2467
66.659
107.686
143.717
161.194
151.533
115.379
62.9336
9.85027
-29.2997
-46.73
-43.6358
-28.1401
-10.5489
1.4446
5.28741
3.05961
-1.07987
-3.61393
-3.20916
-0.624921
2.45505
4.6692
5.56419
5.43276
4.83768
4.19093
3.57767
2.93968
2.28057
1.76012
1.60582
1.96605
2.71632
3.54381
4.16747
4.51666
4.93545
5.9922
8.19593
11.6077
15.6834
19.4574
22.0501
23.12
23.0583
22.7869
23.214
24.7687
27.2101
29.8348
31.9819
33.3488
34.1681
34.9924
36.3546
38.4239
40.9127
43.2325
44.7006
44.8486
43.6107
41.3351
38.6391
36.1677
34.3218
33.1034
32.1353
30.9145
29.1352
26.8934
24.6824
23.1399
22.6582
23.0843
23.7181
23.5873
21.8426
18.1942
13.1249
7.76956
3.55329
1.60206
2.21027
4.6879
7.57202
9.28779
8.94014
6.79288
4.13842
2.6344
3.36408
6.22429
9.99912
13.019
14.0649
12.9528
10.5104
8.04537
6.65363
6.7554
8.10168
9.98449
11.6032
12.3362
11.9255
10.5814
8.93193
7.89129
8.19885
10.0755
12.9909
15.8229
17.3745
16.9718
14.7585
11.5714
8.52795
6.52717
5.93427
6.56788
7.87176
9.16283
9.82561
9.50945
8.25084
6.48438
4.9186
4.22586
4.71341
6.13418
7.82244
9.05993
9.51365
9.48325
9.68947
10.8066
12.9171
15.3643
17.0446
17.1224
15.6078
13.5141
12.3553
13.2497
16.1765
19.8842
22.5219
22.6852
20.2535
16.5229
13.4146
12.3938
13.5992
15.692
16.7012
15.2368
11.4665
7.27011
5.23793
7.16486
12.6226
18.7342
21.4468
17.9912
9.30156
0.823968
0.867247
16.6219
49.6532
93.3748
134.262
156.924
150.798
115.331
60.732
3.83684
-38.9845
-58.3706
-54.8208
-36.8453
-15.8472
-0.654026
5.54753
4.84918
1.75187
-0.020395
0.68318
2.74287
4.36257
4.57334
3.72915
2.92053
2.9721
3.86188
4.92324
5.54264
5.63002
5.58153
5.81358
6.36547
6.82042
6.74655
6.21294
5.85053
6.52848
8.67703
11.9024
15.1849
17.4749
18.3588
18.2278
18.0116
18.5456
20.133
22.51
25.1461
27.7018
30.1911
32.8392
35.812
38.9036
41.6324
43.4991
44.3087
44.3119
44.0671
44.041
44.3291
44.5716
44.2488
43.0599
41.1785
39.1825
37.6438
36.6767
35.8156
34.247
31.3513
27.1427
22.272
17.6594
13.9926
11.3701
9.3548
7.42347
5.37997
3.46589
2.1183
1.60074
1.79575
2.28572
2.65968
2.81731
3.01442
3.66004
4.9993
6.93285
9.0757
11.0207
12.5795
13.8484
15.1331
16.6263
18.2047
19.4363
19.7786
18.9032
16.9183
14.3548
11.9575
10.3078
9.64206
9.8522
10.6307
11.6775
12.7446
13.5757
13.901
13.5005
12.3923
10.9674
9.85951
9.65397
10.4472
11.7479
12.735
12.7758
11.9119
10.8283
10.405
11.0398
12.3131
13.2037
12.764
10.8549
8.32602
6.5613
6.57955
8.36679
10.8559
12.5885
12.6704
11.4068
10.1136
10.2557
12.4757
16.079
19.4997
21.2721
21.0088
19.6345
18.7778
19.5817
21.8485
24.0778
24.3468
21.5781
16.2735
10.2795
5.67172
3.69561
4.10195
5.54286
6.49979
6.30285
5.50509
5.41876
7.14486
10.6495
14.4084
16.0226
13.6327
7.65875
1.7307
2.07701
14.9986
43.2964
83.4219
125.097
154.471
159.747
136.695
91.1783
37.0634
-9.53721
-36.9994
-42.4337
-31.5426
-14.5753
-0.89976
4.91438
3.7847
-0.002199
-2.08449
-0.408631
4.29787
9.59557
13.1258
13.7583
11.8732
8.80775
6.05503
4.57426
4.56122
5.55442
6.768
7.54222
7.61872
7.1727
6.55338
6.16415
6.16562
6.57207
7.35031
8.53927
10.2237
12.3292
14.5485
16.435
17.6919
18.4242
19.1843
20.6698
23.296
26.9321
30.9287
34.5013
37.1463
38.8683
40.0761
41.3032
42.8822
44.8049
46.7587
48.3271
49.1447
48.9635
47.7681
45.8115
43.5919
41.7167
40.6681
40.5253
40.8389
40.7687
39.4146
36.2708
31.4688
25.6903
19.8763
14.8027
10.8304
7.88459
5.73788
4.23301
3.41365
3.43429
4.36449
5.97326
7.72003
9.01225
9.42421
8.90588
7.7502
6.42534
5.30006
4.56561
4.33444
4.75577
6.04888
8.32335
11.2663
14.0332
15.5179
15.0295
12.8014
10.1078
8.60289
9.3604
12.1201
15.3759
17.264
16.7227
14.1986
11.3239
9.85348
10.5319
12.6841
14.6844
15.0466
13.2812
10.1566
7.13497
5.56592
6.04993
8.24487
11.2364
13.9364
15.4358
15.2674
13.4975
10.7217
7.85454
5.82391
5.13835
5.59571
6.44233
6.87233
6.57839
5.9878
5.99955
7.31518
9.90423
12.8141
14.6997
14.585
12.487
9.53407
7.37202
7.34647
9.81922
13.9185
18.0507
20.73
21.4249
20.7724
20.1548
20.789
22.9714
25.8589
27.9818
28.1815
26.2883
23.2223
20.3587
18.7225
18.352
18.498
18.213
16.9875
15.0755
13.2923
12.5205
13.2743
15.4883
18.4784
21.085
21.8448
19.5894
14.4167
8.69742
7.28873
16.1438
39.3611
75.9807
118.33
153.608
168.624
155.689
116.633
62.6772
9.84607
-27.6461
-42.982
-38.4117
-22.6648
-5.97184
4.6293
7.30356
4.52111
0.386491
-1.97916
-1.54603
0.923059
4.03853
6.72557
-1e-006
-1e-005
-3.1e-005
-5.4e-005
-6.7e-005
-6.3e-005
-4.3e-005
-3.2e-005
-6.2e-005
-0.000142
-0.000242
-0.000302
-0.000275
-0.000173
-8.3e-005
-0.000118
-0.000326
-0.000627
-0.000823
-0.000714
-0.00027
0.000242
0.00026
-0.000924
-0.003932
-0.005815
0.023951
0.056918
0.049823
-0.01383
-0.123253
-0.219481
-0.205324
-0.04786
0.144224
0.195196
-0.031458
-0.481981
-0.872123
-0.861433
-0.319002
0.449144
0.846215
0.321303
-1.12525
-2.69364
-3.0125
-0.770607
4.55307
12.2389
20.4238
26.7592
29.3601
27.6015
22.4151
15.951
10.6293
8.0536
8.27025
9.79442
10.4768
8.76242
4.65246
-0.159024
-3.23574
-2.84379
0.997146
6.44769
10.914
12.5622
11.3105
8.65968
6.61886
6.44178
8.00737
10.1636
11.7127
12.1767
11.9246
11.6449
11.6457
11.6571
11.1785
10.0327
8.68125
7.97135
8.51035
10.1621
12.0787
13.1852
12.8566
11.2509
9.24071
7.83031
7.62943
8.61937
10.2555
11.7932
12.6541
12.6069
11.7169
10.2342
8.51243
6.95966
5.97263
5.80824
6.43202
7.4141
8.04115
7.68711
6.22361
4.23362
2.74353
2.71553
4.38886
7.01816
9.2569
9.87206
8.53336
6.10451
4.17074
4.07726
6.13826
9.44476
12.4403
13.8717
13.494
12.151
11.1643
11.4645
13.0504
15.0902
16.3933
16.0522
13.9303
10.6866
7.44132
5.35932
5.16091
6.7776
9.32619
11.4932
12.2716
11.5859
10.3772
9.96892
10.9505
12.4529
12.5696
10.0232
6.08053
5.23202
13.6664
35.7196
70.1644
108.672
138.057
145.629
125.205
80.5977
24.5526
-26.4744
-59.0933
-67.9176
-56.6202
-34.9053
-13.4253
0.623475
5.42291
3.6692
-0.020659
-1.82424
-0.223888
3.90782
8.35552
10.9594
10.6794
7.96179
4.39465
1.84311
1.55517
3.60085
6.9568
10.1837
12.2506
13.0919
13.4145
14.1279
15.5952
17.371
18.5861
18.6967
18.0453
17.7842
19.1364
22.5334
27.1668
31.3659
33.5525
33.249
31.4587
30.1713
31.2995
35.6019
42.2327
49.1849
54.316
56.4163
55.764
53.8683
52.6254
53.3045
55.9384
59.425
62.1469
62.8001
60.9919
57.3238
52.982
49.1632
46.593
45.2456
44.4618
43.2589
40.7706
36.6073
31.0454
24.9293
19.3183
14.991
12.1129
10.2248
8.62315
6.89266
5.157
3.94749
3.71883
4.44225
5.50854
6.13964
5.90681
5.06161
4.35624
4.54514
5.84477
7.80357
9.62223
10.6931
10.9377
10.7725
10.749
11.1821
12.0041
12.9163
13.6801
14.2765
14.8441
15.4657
16.0247
16.2577
15.975
15.2998
14.6815
14.6157
15.3552
16.6906
18.0267
18.6779
18.2306
16.7239
14.5924
12.3677
10.4362
8.95761
7.95639
7.4125
7.29442
7.47121
7.64086
7.45427
6.78797
5.97364
5.68327
6.5329
8.52506
10.8395
12.2219
11.762
9.5868
6.99026
5.68407
6.76025
9.94191
13.7461
16.4157
17.0049
15.94
14.6638
14.5766
16.037
18.09
19.0127
17.4274
13.2351
7.84485
3.39768
1.78892
3.51198
7.42445
11.2916
12.9681
11.5999
8.12741
4.71632
3.4233
4.78976
7.3103
8.38466
6.43459
2.89232
2.67394
12.276
36.0865
72.792
114.101
146.998
158.949
143.599
104.015
51.7426
2.05209
-32.2911
-45.7025
-40.7566
-25.5464
-9.1638
2.21375
6.9262
6.85462
5.10427
3.87102
3.65349
3.76719
3.43914
2.58126
1.79403
1.7821
2.77715
4.32178
5.63787
6.24954
6.28292
6.38614
7.22773
9.02926
11.2189
12.8558
13.086
11.789
9.71504
8.17412
8.34266
10.6091
14.3474
18.2696
21.1471
22.4496
22.6567
22.9176
24.4182
27.6774
32.328
37.336
41.6137
44.5884
46.4353
47.8216
49.437
51.6117
54.1265
56.4387
58.0911
58.9462
59.09
58.6743
57.6695
55.87
53.1766
49.7981
46.2432
42.9669
39.9895
36.7851
32.5994
27.0705
20.6621
14.5998
10.2805
8.46525
8.84931
10.3217
11.6041
11.9432
11.2608
9.93856
8.32051
6.48098
4.39746
2.32655
0.951196
1.10919
3.2595
7.07076
11.4907
15.2541
17.5553
18.3423
18.2466
18.0784
18.4237
19.4146
20.8409
22.3065
23.3963
23.7388
23.1812
21.866
20.236
18.9277
18.3242
18.2911
18.2377
17.5558
16.1279
14.6235
14.0852
15.1725
17.557
19.9709
20.9629
19.8246
17.0759
14.151
12.418
12.3774
13.3923
14.2652
14.1113
12.8502
11.1246
9.72208
8.99357
8.7511
8.54438
8.16946
7.82304
7.9257
8.68655
9.97054
11.3895
12.6375
13.6591
14.5559
15.3132
15.6264
15.0922
13.6458
11.8576
10.7926
11.4025
13.8232
17.1776
20.0869
21.5708
21.7245
21.6909
22.8704
25.8314
29.7537
32.7621
33.0391
29.918
24.3005
18.1348
13.2739
10.5212
9.43342
8.82221
7.73596
6.0697
4.58446
4.28097
5.68279
8.29078
10.619
10.7202
7.19489
0.32654
-7.15339
-10.0343
-2.07006
21.2637
59.687
106.364
148.96
173.669
170.929
139.894
89.4402
34.6948
-9.13242
-32.762
-35.6445
-24.5724
-9.25347
2.48525
7.46925
6.97753
4.4676
2.98341
3.67135
5.8878
8.24468
9.65886
9.81336
8.97236
7.63847
6.26945
5.17933
4.53595
4.31754
4.31468
4.19975
3.79357
3.18416
2.73305
2.91032
3.90454
5.53637
7.35637
9.01121
10.4946
12.1695
14.5015
17.7265
21.5893
25.433
28.5206
30.44
31.3997
32.1779
33.8025
37.0294
41.9528
47.8969
53.6618
58.0302
60.2902
60.5179
59.4709
58.1745
57.437
57.5992
58.4513
59.4677
60.1217
60.0336
59.0386
57.1621
54.5251
51.3178
47.7401
43.8867
39.7267
35.1222
30.0001
24.5319
19.1828
14.5202
10.9066
8.26759
6.14189
4.00575
1.76507
-0.064725
-0.614854
0.783377
3.9879
7.91827
10.976
11.8807
10.4375
7.7215
5.48183
5.21419
7.32138
10.8734
14.1333
15.5584
14.6097
11.9747
9.1298
7.52125
7.83707
9.78691
12.4135
14.6063
15.5669
15.0412
13.2882
10.9125
8.68999
7.46696
7.86638
10.068
13.6117
17.4011
20.0059
20.3149
18.0221
13.8601
9.29725
5.88797
4.63264
5.54939
7.82184
10.2855
12.0021
12.589
12.2186
11.3379
10.3366
9.37857
8.47188
7.65348
7.11713
7.16041
8.0077
9.67121
11.7464
13.5318
14.3313
13.8479
12.3011
10.3374
8.7795
8.2033
8.65739
9.63866
10.4697
10.7331
10.5641
10.463
10.8491
11.6964
12.5893
13.1188
13.408
14.363
17.1957
22.3777
28.9025
34.5132
36.7103
34.234
27.9503
20.4997
14.8959
13.241
15.7632
21.3077
28.2903
35.4868
42.1924
47.7192
51.0241
51.0109
47.1076
39.7213
30.2081
20.2833
11.5111
5.16999
2.40313
4.29216
11.3108
22.3581
34.3108
42.7816
43.9359
36.5574
22.9264
7.8165
-3.45251
-6.81207
-0.075284
17.5186
45.6581
82.2641
122.301
157.103
176.267
171.507
141.093
91.9496
37.7761
-6.20534
-29.2004
-28.4658
-9.16739
18.8657
45.4495
63.5166
70.3684
67.3713
58.9128
50.7721
48.1702
54.0105
67.1676
82.4627
92.5759
91.4302
77.5465
55.4494
34.0261
22.4377
25.6371
41.7715
63.146
80.0855
85.7994
79.5519
66.3014
53.6702
47.8624
51.0543
61.448
75.3579
89.7429
103.242
115.393
124.888
129.06
125.341
113.625
98.0359
85.6587
82.8834
91.241
105.915
118.323
121.138
113.016
99.535
89.6439
90.1072
101.652
119.159
135.427
145.626
149.296
148.926
146.628
141.931
132.549
117.206
98.0136
80.3133
69.6417
67.9529
71.9456
74.7951
70.1904
56.2041
36.2994
16.9388
3.70593
-1.55538
-1.03584
1.2016
2.05033
1.03017
-0.203792
0.240421
2.63285
5.2064
5.42039
1.77327
-4.83988
-11.412
-14.5882
-12.9327
-8.2433
-4.78757
-6.90855
-15.9534
-28.9185
-39.4209
-41.0794
-30.8029
-10.5463
13.4821
33.8897
45.4762
47.1829
41.751
33.7423
27.1773
23.9547
23.5364
23.8137
22.5207
18.5655
12.7517
7.40627
5.17556
7.44055
13.3293
20.0077
24.2644
24.4533
21.5161
18.3147
17.7154
20.698
25.8061
30.24
31.8805
30.5866
27.9855
25.9188
24.9602
24.2204
22.4241
19.3496
16.3907
15.7295
18.5489
23.9082
29.098
31.4358
30.222
27.4379
26.6436
30.6707
39.6916
50.7921
59.4101
61.6603
56.2381
44.9175
31.5658
20.3444
14.0131
13.1213
16.0402
19.8965
21.7941
20.0948
15.3052
10.052
7.83946
11.0056
18.898
27.5047
31.3392
26.9259
16.1094
6.69814
9.38072
31.8317
73.1293
121.997
160.496
172.071
149.724
99.9024
39.7413
-10.9212
-38.5587
-41.2213
-27.4888
-10.3057
0.420907
2.24793
-0.235089
0.113183
7.67529
21.2641
35.1925
43.0345
41.6307
32.8173
22.0561
15.1044
14.9781
20.7765
28.9514
35.7669
39.2197
39.4025
37.4194
33.9403
28.6632
21.1998
12.4429
5.27354
3.52639
9.7829
23.2982
39.6834
52.7668
57.8513
54.2838
45.8528
38.6108
37.3116
42.7198
51.3667
57.8649
58.4155
53.2282
46.5958
44.305
50.1072
63.272
78.655
89.289
90.1176
80.7566
65.7633
52.3899
46.978
51.7926
63.9025
76.8181
83.831
81.2049
69.707
53.8709
39.3349
29.9738
26.4377
26.5144
26.9893
25.6856
22.3876
18.4207
15.362
13.8962
13.5877
13.5071
13.1091
12.5563
12.3683
12.7254
13.1836
13.0152
11.9851
10.6476
10.022
10.7686
12.5357
14.1082
14.3054
12.9771
11.1594
10.3237
11.3125
13.7387
16.5071
18.6988
20.2167
21.5144
22.7342
23.053
21.092
16.411
10.7283
7.66641
10.7256
20.4514
33.0696
41.9539
41.4478
30.8241
15.6653
5.25854
7.16593
22.4684
44.6442
63.0136
69.0221
61.147
45.4544
31.4993
26.2384
29.8998
36.4989
-1e-006
-7e-006
-1.9e-005
-3.2e-005
-4e-005
-4.3e-005
-5.3e-005
-9.6e-005
-0.000193
-0.000333
-0.000466
-0.000524
-0.000483
-0.000401
-0.000419
-0.000658
-0.001114
-0.001598
-0.001814
-0.001569
-0.000991
-0.000568
-0.000941
-0.002528
-0.005226
-0.006392
0.013684
0.033394
0.027158
-0.017983
-0.071614
-0.089983
-0.013874
0.13409
0.210385
0.026129
-0.471673
-1.09353
-1.44276
-1.14346
-0.289127
0.539785
0.471937
-0.970328
-3.29403
-5.00227
-4.42221
-0.86551
4.51439
9.13362
10.6761
9.28973
8.76682
15.5152
35.3135
69.3055
111.549
149.911
170.545
164.031
130.009
77.8394
22.8216
-20.1803
-42.4689
-43.8984
-31.1167
-13.2057
2.61363
13.1015
18.4095
19.9795
18.8352
15.2668
9.69192
3.5814
-0.65403
-0.959666
2.92506
8.9721
13.92
15.2155
12.5764
8.02612
4.53219
4.15614
7.0216
11.617
16.1106
19.5732
22.0665
24.0342
25.2838
24.8064
21.5427
15.653
9.13437
5.30003
7.07639
15.2709
27.8725
40.8441
50.0535
53.1819
50.7519
45.7059
41.9552
42.629
48.8238
59.2856
70.9785
80.2814
84.4774
83.0158
77.923
73.0231
72.1826
77.3698
87.4516
98.5154
105.595
104.907
95.6285
80.0951
62.5728
47.3827
37.3103
32.9805
33.1941
35.8033
38.6296
40.0919
39.4008
36.4635
31.7437
26.0339
20.298
15.4908
12.3893
11.4901
12.77
15.5408
18.4966
20.0962
19.2976
16.2366
12.4835
10.4745
12.1814
17.815
25.3063
31.1347
32.1927
27.6775
19.8428
12.8996
10.648
14.1806
21.1426
27.1129
28.3548
24.1857
17.4598
12.8364
13.7793
20.2382
28.5593
33.7487
32.5771
25.7222
17.3809
12.7999
15.317
24.3779
35.876
44.2873
45.3385
37.8163
23.8075
7.70061
-5.50232
-11.8467
-9.60196
0.278606
14.3413
27.5927
35.1976
34.4056
25.8981
13.9742
4.98512
4.56105
14.8113
32.8004
51.459
62.6501
61.2202
47.8395
29.0886
14.4129
11.3248
21.4116
39.3248
55.7065
62.2832
56.3167
41.8431
27.0519
19.4835
21.873
31.1233
40.6763
44.4018
39.808
28.6569
15.3287
4.40129
-1.11351
-0.333754
5.97921
16.0223
27.316
37.3176
44.3931
49.0323
54.249
64.3245
82.0187
105.831
129.284
143.174
139.903
117.611
81.6372
42.15
9.4495
-10.3434
-16.8451
-13.8425
-5.99537
3.81507
14.9294
27.4647
40.3456
50.6193
54.749
50.9195
40.7126
28.9658
21.5423
22.2962
30.8871
42.8179
51.9921
54.1885
49.5405
42.3947
38.6136
41.848
50.9954
60.7718
65.0125
60.499
49.1495
36.8409
29.884
31.333
39.4124
48.8976
54.4168
53.5893
47.8729
41.2085
37.6117
39.3468
46.5344
57.7699
70.8572
83.2
92.0252
95.0745
91.7296
84.0632
76.5664
74.0071
78.5315
87.9368
96.6021
98.8203
92.5449
81.054
71.0471
68.3353
73.7814
82.2252
85.3987
76.9229
56.418
30.0863
7.58947
-2.96902
1.00216
15.7404
33.4927
46.4726
50.1583
44.4398
32.707
19.7116
9.46826
4.11168
3.84184
7.4937
13.3784
19.8277
25.4354
29.0887
30.0391
28.1555
24.205
20.0825
18.3879
21.3155
29.2069
39.7634
48.5819
51.0754
45.0166
32.1825
17.887
8.41863
7.51661
14.1175
22.8706
27.0208
22.2969
9.53413
-5.58809
-15.5846
-15.0073
-3.31564
14.8455
31.8125
40.3816
36.8344
22.3052
2.31851
-15.5175
-24.7196
-22.6013
-11.5996
1.76676
9.98804
8.30112
-2.6555
-17.2034
-27.9
-29.7145
-22.7675
-11.8743
-3.14595
0.00301
-1.16359
-1.88991
2.78411
14.8528
32.1965
49.7402
61.8051
64.0814
54.8758
35.5598
10.6371
-12.8305
-26.926
-25.8387
-9.02559
17.5462
43.5297
58.9929
59.4555
48.0593
33.3727
24.2271
24.7122
32.4854
41.3015
45.5354
43.5515
38.0276
33.095
30.9301
30.2429
27.8298
21.8986
14.541
11.8362
20.9222
45.8231
84.6436
129.416
168.902
192.809
195.384
177.028
143.479
103.222
64.6377
33.7772
13.1901
2.20446
-1.93764
-2.57165
-2.32006
-2.2341
-1.90827
-0.344471
2.88137
6.89235
9.69056
9.39802
5.67312
0.404624
-3.03813
-1.70724
5.01827
14.7227
23.1245
26.4984
23.8638
17.6541
12.3261
11.8421
17.4645
27.0949
36.4164
41.2383
39.4171
31.6101
20.6312
9.96838
2.3122
-1.29988
-1.49021
0.061513
1.57807
2.05844
1.70982
1.87764
4.21968
9.41101
16.4354
22.7461
25.619
23.8996
19.1224
14.8989
14.84
20.2876
29.2841
37.7083
41.9178
40.9962
37.1572
34.1877
34.7736
38.7185
43.3453
45.504
43.7528
39.0777
33.8557
29.8837
27.2144
24.5305
20.6164
15.6482
11.2909
9.29194
9.84393
11.2623
11.1157
8.2766
4.22626
2.48761
6.28496
16.2849
29.6813
41.4745
47.0848
44.6568
35.837
24.5905
15.2079
10.677
11.9165
17.8745
25.9819
33.1583
36.5611
34.4977
27.7386
19.8963
16.361
21.623
36.4715
56.5545
73.635
79.4478
70.1991
49.063
25.0969
8.90618
7.44107
20.898
43.0883
64.8348
78.4006
80.4304
72.4751
59.2247
45.8949
36.1386
31.1924
30.1378
30.7361
30.4296
27.3465
21.0078
12.4956
4.05691
-1.98898
-4.31982
-3.21689
-0.235026
2.71519
4.5155
5.17253
5.45398
6.14153
7.36505
8.70703
9.60465
9.82857
9.64643
9.48559
9.45652
9.19935
8.35633
6.78922
4.70078
2.62555
1.13058
0.686389
1.63654
4.19747
8.28283
13.0467
16.8196
17.7583
15.0453
9.8614
5.23102
4.36261
8.44778
15.4508
21.0441
21.5971
17.4251
13.9899
19.6488
40.6741
76.5431
118.447
152.405
165.556
152.263
116.674
70.4916
27.4435
-2.36573
-15.4791
-14.4905
-5.19963
6.44109
16.118
21.5561
22.0872
18.3321
12.243
6.67144
4.33136
6.53078
12.3327
18.7589
22.3924
21.1972
15.6307
8.26515
2.13882
-0.885599
-0.875311
0.645303
1.97961
2.37296
2.19841
2.54467
4.25668
7.38216
11.2171
14.7798
17.2241
18.019
16.9841
14.2962
10.5471
6.64589
3.53199
1.76481
1.2129
1.30457
1.64002
2.51074
4.88383
9.67819
16.9509
25.5034
33.4854
39.5857
43.8265
47.2888
50.9527
54.5838
56.5968
55.3041
50.5594
44.4518
40.2293
40.0784
43.4323
47.0098
46.8266
40.9184
30.799
20.5339
14.0769
12.7691
14.5936
15.7609
13.429
7.63567
1.12732
-2.57442
-1.50944
3.49269
9.43009
13.1493
13.158
10.198
6.38558
3.71903
2.91406
3.33304
3.83919
3.83673
3.6937
4.31148
6.20485
8.84766
10.7493
10.3763
7.26485
2.59723
-1.33433
-2.38445
0.190948
5.20547
10.1584
12.6941
12.1073
9.79477
8.516
10.6802
16.6918
24.3807
30.1412
31.1054
27.1788
21.5482
19.0724
23.3055
34.0066
46.6265
54.5063
52.6542
40.845
24.1445
10.2727
5.23302
9.86807
19.5713
27.3687
28.4625
23.4441
17.881
18.6669
29.2107
46.9145
64.4084
73.8829
71.746
60.6567
47.7138
40.0164
40.5391
47.0353
54.371
58.3551
58.3559
56.9935
57.4532
60.4588
63.511
62.8027
56.63
47.554
41.6497
44.889
58.9179
79.0773
96.2074
101.603
92.3838
74.1673
59.0825
60.0534
84.0035
127.55
177.552
216.213
228.419
207.929
159.721
97.6576
38.865
-2.61468
-20.3877
-16.7532
-0.368472
18.1133
30.477
33.5497
29.1639
21.9563
16.2864
14.1411
14.7021
15.7472
15.5661
14.0918
12.6601
12.7571
14.6848
17.2449
18.5081
17.1748
13.4581
8.92315
5.46557
4.21737
5.15282
7.46233
10.3507
13.4787
16.8416
20.3637
23.6383
26.0591
27.3311
27.8427
28.6089
30.7522
34.8745
40.6541
46.9282
52.1756
55.1948
55.639
54.1861
52.2875
51.5638
53.1281
57.1693
62.9159
69.0708
74.4017
78.1722
80.2132
80.6209
79.535
77.027
73.1628
68.2286
62.7847
57.5146
52.9292
49.0891
45.6776
42.1514
37.9336
32.6062
26.0132
18.3199
10.2257
3.12773
-1.01612
-0.456956
5.24193
14.359
23.2351
27.6947
25.2343
16.6827
6.13888
-1.05447
-1.23793
5.38628
14.7112
21.1358
20.8771
14.1959
5.21662
-0.677637
0.025804
6.96311
16.2859
23.0349
23.9689
18.9931
10.681
2.59442
-2.5685
-3.92551
-2.3346
0.41257
2.47608
2.68138
1.14494
-0.630575
-0.122722
4.94383
15.0277
27.7621
38.3968
42.0388
36.5133
23.9756
10.0121
0.618658
-1.28653
2.56804
7.32972
8.74013
6.28515
3.79015
6.89661
19.1237
39.3066
62.1279
81.3927
93.7007
100.109
104.877
112.313
124.14
138.758
152.614
162.306
166.103
164.082
157.527
148.306
138.815
132.004
130.826
136.905
149.183
163.749
175.299
179.603
175.737
166.311
155.771
147.851
144.005
144.005
147.635
156.32
172.618
197.595
227.737
254.036
264.455
249.069
205.502
141.523
73.0036
17.7195
-11.7568
-12.9089
6.46462
32.573
52.2681
58.4084
51.7236
38.7231
27.2626
22.3791
24.4771
30.2839
35.4157
36.9241
34.4118
29.4069
23.9456
19.2818
15.5124
12.028
8.23096
4.04533
-0.004363
-3.14228
-4.56804
-3.84679
-1.01978
3.29594
7.93678
11.5466
13.1735
12.747
11.2406
10.1715
10.7907
13.3477
16.8635
19.7798
20.7494
19.4215
16.636
13.9057
12.5855
13.1775
15.0257
16.5785
16.1302
12.7508
6.96664
0.795198
-3.02482
-2.36044
3.04382
11.1578
18.4594
21.6413
19.2836
12.5973
4.71854
-0.982687
-2.63029
-0.615886
2.91536
5.46401
5.56419
3.47593
0.70678
-1.03144
-0.786639
1.15032
3.50354
4.83036
4.33294
2.37983
0.389341
0.063352
2.41518
7.06722
12.2688
15.7575
16.0521
13.3322
9.48835
7.05626
7.74772
11.3219
15.6499
18.0088
16.7382
12.2725
6.88031
3.27929
-0
-1e-006
-4e-006
-1.2e-005
-2e-005
-2.3e-005
-2e-005
-1e-005
-6e-006
-3.1e-005
-0.000104
-0.000214
-0.000325
-0.000398
-0.000419
-0.000422
-0.000488
-0.000676
-0.000966
-0.001253
-0.001413
-0.001402
-0.001336
-0.001486
-0.002183
-0.003424
-0.002528
0.004565
0.018894
0.016015
-0.014723
-0.054837
-0.092293
-0.086126
0.014171
0.176396
0.257952
0.138485
-0.189713
-0.616241
-0.893669
-0.809501
-0.462595
-0.210845
-0.450091
-1.27991
-2.32992
-2.8539
-2.14619
0.014774
3.0726
5.88752
7.23747
6.34826
3.4977
0.629337
1.622
11.7576
36.0247
76.244
128.232
180.839
218.417
226.452
198.233
139.079
65.3915
-1.47356
-43.7649
-54.1478
-37.4486
-6.85156
22.9032
41.7703
47.086
42.37
33.7922
26.5585
23.2086
23.6469
26.322
29.6644
32.7134
35.2156
37.5851
40.4522
44.1673
48.3568
51.5673
51.548
46.3088
35.5462
21.5835
9.02751
3.07477
7.11205
20.5604
38.6604
54.4046
61.7923
58.6392
47.6687
35.0888
27.2809
27.5163
34.4701
43.2601
48.4028
47.109
40.8972
34.693
33.9319
41.4035
55.5026
70.9908
81.7965
83.9898
77.5625
65.9927
53.9753
44.7558
38.7637
33.9881
27.9126
19.4715
9.79247
1.41901
-3.54205
-4.65337
-3.29281
-1.61858
-0.865282
-0.63899
0.477629
3.76019
9.13505
15.2122
20.2298
23.1749
24.337
24.7452
25.1319
25.4402
24.9188
23.137
20.8404
19.6335
20.8699
24.453
28.5696
30.7006
29.3648
25.2082
20.7426
18.7233
20.2428
23.9567
27.0431
27.1385
23.9994
19.6375
16.9574
17.8397
21.8963
26.7354
29.4713
28.3193
23.3852
16.3059
9.2732
4.06733
1.73409
2.53567
6.13769
11.6983
17.8244
22.8501
25.4609
25.3043
23.2743
21.1339
20.6627
22.8844
27.6854
34.0536
40.6173
46.1497
49.726
50.699
48.7158
43.9682
37.367
30.6188
25.6334
23.5364
23.8399
24.5153
23.1188
18.3744
11.3102
4.9118
2.53249
5.79033
13.4677
22.2279
28.4843
30.2513
27.9158
23.34
18.3016
13.6037
9.72803
8.14501
12.0407
25.2159
49.3927
81.5553
113.331
133.615
133.323
109.891
68.9906
22.3655
-16.8945
-39.3651
-42.2385
-29.1554
-7.48373
15.0579
32.9549
43.8092
47.8286
46.7777
42.8518
38.0516
33.9137
31.2633
30.2863
30.6966
32.0199
33.8168
35.5872
36.7421
36.7637
35.4843
33.3122
31.2953
30.5894
31.5922
33.5539
34.8943
34.2683
31.6437
28.4332
26.7493
28.0142
31.9341
36.737
40.312
41.5255
40.8846
40.3714
41.9554
46.2045
51.7054
55.8677
56.3588
52.5182
46.1855
40.9185
40.1262
45.0312
53.6918
61.7423
64.6907
60.5103
50.917
40.6556
34.9723
36.8925
45.6145
57.0826
66.1838
68.9323
64.006
52.8241
38.5534
24.9462
15.3101
11.6328
14.0061
20.5722
28.1876
33.8582
36.2313
36.0045
35.1673
35.3503
36.6577
37.9701
38.248
37.6927
37.7453
39.6537
42.9827
45.3958
44.2727
38.9674
31.7236
26.3893
25.6507
29.0058
32.9507
33.4512
28.8594
21.3736
15.3865
14.4746
18.9096
25.5734
30.0676
29.6426
24.7588
18.3552
13.6274
11.9626
12.3613
12.675
11.3842
8.82777
6.80826
7.19113
10.5485
15.5689
19.9724
22.0561
21.7845
20.7902
21.2966
24.5767
30.0218
35.4703
38.3942
37.27
32.4348
25.8863
20.1667
16.9772
16.4023
17.0669
17.0075
15.0056
11.4859
8.30853
7.85379
11.4829
18.6463
27.0013
33.6551
36.9027
37.2304
36.7096
37.3523
39.2776
40.2386
37.4473
30.1758
21.9634
19.9375
31.4532
59.1471
97.7467
134.709
155.006
147.95
112.449
57.9594
0.693183
-43.1812
-63.816
-60.6822
-41.1999
-16.3084
4.52892
16.5921
20.4142
19.7174
18.6619
19.6693
22.7444
26.2259
28.274
28.0974
26.3096
24.3661
23.6195
24.5903
26.7959
29.1716
30.6359
30.5432
28.7336
25.4349
21.0646
16.3711
12.45
10.5437
11.5042
14.9696
19.2036
21.9267
21.7414
19.3088
17.1932
18.2819
23.7539
31.8544
38.6777
40.5592
36.6742
29.7808
24.6785
25.3248
32.4281
43.1855
53.1262
58.723
59.1362
55.9747
51.7855
48.3634
46.051
44.2267
42.242
39.8365
36.924
33.0839
27.6551
20.3051
11.7191
3.77078
-1.25399
-1.99522
1.00574
5.28844
7.66287
6.02608
0.670758
-5.50988
-8.39185
-4.7178
5.88644
20.2334
32.9885
39.2313
37.0471
28.5998
18.9751
13.2111
13.5089
18.3791
24.2321
28.0904
29.5587
30.5663
33.1774
37.2847
40.1112
38.1444
30.0811
18.5141
8.73424
5.41444
9.48554
17.3153
23.0822
22.7272
16.7896
10.006
8.11843
13.9227
25.2326
36.1167
40.5159
35.9394
24.8936
13.4327
7.85446
11.4144
22.9236
37.7127
50.0567
55.7401
53.5658
45.368
34.857
25.8996
20.976
20.519
23.0714
26.2803
28.0658
27.3833
24.545
20.7753
17.3931
15.2193
14.3245
14.3026
14.504
14.4127
13.8111
12.8523
12.0153
11.8937
12.794
14.2474
14.8679
12.9128
7.61736
0.759887
-2.75588
3.82285
26.0376
64.4594
112.343
156.596
182.29
178.882
145.149
90.3293
30.6179
-17.3921
-43.1644
-45.5104
-31.5571
-12.2964
2.77784
9.21358
8.08429
3.89105
1.32654
2.80105
7.77028
13.7482
18.0488
19.4122
18.4194
16.8526
16.4488
17.919
20.5492
22.7391
23.0976
21.5463
19.4862
18.8833
20.9227
25.1196
29.3768
31.3669
30.1154
26.7698
23.8816
23.5867
25.98
28.8859
29.4714
26.5033
21.6627
18.7876
21.3895
30.0194
41.5236
50.8305
54.0691
51.0744
45.3115
41.5107
42.4271
47.1147
51.7952
52.5591
47.9235
39.5873
30.874
24.4125
20.6626
18.2098
15.2484
11.1112
6.58454
2.99641
1.12335
0.826082
1.52871
3.13768
6.08076
10.6279
16.009
20.2718
21.3204
18.4556
13.0853
8.13752
6.25566
7.85811
10.9259
12.4971
10.8761
6.99174
3.88689
4.40157
8.9471
14.7106
17.1725
13.1011
3.02999
-8.4358
-15.0059
-12.271
-0.55027
14.756
25.8843
26.8264
16.5222
-0.535174
-16.7117
-25.235
-23.5069
-13.9308
-2.10075
6.35716
8.53408
5.21657
-0.27448
-4.15581
-4.11871
-0.257317
5.31679
9.80895
11.2014
9.19176
5.26659
1.93318
1.38298
4.34958
9.67716
14.9363
17.7675
17.0649
13.363
8.24571
3.2303
-0.964189
-4.29425
-6.77919
-7.99486
-7.05465
-3.35477
2.54499
8.83719
13.1993
13.8863
10.5784
4.32513
-2.89089
-8.72573
-10.9797
-8.34964
-1.2539
7.48938
13.0471
10.7132
-0.863675
-17.2669
-28.7485
-24.2116
2.58187
48.2361
99.3762
137.528
147.059
122.371
70.4875
7.92244
-46.2713
-77.8418
-81.9068
-63.2554
-32.9634
-3.39175
16.3193
22.7768
18.4499
9.65883
3.29831
3.74609
11.0927
21.5458
29.6871
31.3932
25.8581
15.8528
5.94423
-0.022073
-0.760003
2.18779
5.94071
8.27871
8.89681
9.21669
11.0432
14.8879
19.4143
22.1799
21.3312
17.1047
11.9813
9.33975
11.4876
18.2597
27.1998
35.1456
40.1893
42.6202
44.3238
47.1351
51.3695
55.7672
58.7511
59.984
60.8933
63.6566
69.2828
76.3393
81.4335
81.2836
75.089
65.3502
56.5244
52.4121
53.805
57.8997
60.0655
56.6432
47.0049
33.7729
21.1923
12.826
9.83236
10.7763
12.6508
12.6628
9.53464
4.00776
-1.74672
-5.08777
-4.04271
1.69602
10.512
19.4384
25.3127
26.2066
22.2625
15.7397
9.98198
7.95272
10.9127
17.8342
25.9423
31.8373
32.9196
28.4847
20.1111
11.068
4.92862
3.94273
7.94695
14.5139
20.2516
22.7225
21.7742
19.3578
17.9889
18.7686
20.4578
20.2625
15.8572
7.22621
-2.96884
-10.7376
-13.0317
-9.52644
-2.56688
4.55052
9.5326
12.1322
13.6072
15.2934
17.3177
18.5457
17.6122
14.2535
9.8
6.39538
5.47029
6.8176
8.79373
9.49429
7.88343
4.44826
0.69085
-1.89654
-2.55597
-1.36437
0.899992
3.22884
4.50537
3.70043
0.465238
-4.29369
-8.31542
-9.02507
-5.2796
1.30326
6.79512
7.48793
3.20631
-0.912849
3.61339
23.5832
58.5874
98.7934
128.085
131.501
103.133
49.9137
-11.0696
-60.3121
-84.4357
-81.2384
-58.956
-30.9096
-8.8333
1.84769
2.67169
-0.557726
-1.81837
1.96908
10.0461
19.0003
25.0293
26.0004
22.4422
16.9061
12.4298
11.0409
13.02
17.1271
21.3255
23.8463
23.8262
21.332
17.2896
13.1945
10.6447
10.9277
14.3492
19.9248
25.6759
29.5761
30.7613
30.0935
29.6595
31.3374
35.4704
40.5222
44.149
45.0117
43.8873
43.4147
46.2526
53.0835
61.7729
68.5024
70.1688
66.5587
60.6423
56.8318
58.2893
64.8286
72.9038
77.6067
75.454
66.2743
53.1607
40.641
32.2147
28.6519
28.0549
27.3131
24.0518
17.9558
10.8662
5.5678
4.1186
6.70815
11.6449
16.2973
18.4426
17.3344
13.882
9.94872
7.34171
7.00906
8.79546
11.823
15.116
18.0131
20.2517
21.7671
22.4545
22.2061
21.0921
19.4858
18.1629
17.9782
19.3754
21.967
24.4695
25.2345
23.0321
17.8169
11.0662
5.40336
3.53192
7.07335
15.6818
27.0366
37.7366
44.7605
46.8478
44.8713
41.2468
38.4626
37.661
38.1178
37.8685
35.1988
29.8728
23.4254
18.3051
16.4746
18.292
22.4013
26.4603
28.325
27.1141
23.4225
18.8559
15.3308
14.209
15.6736
18.6122
21.0199
20.8728
17.168
10.6482
3.57412
-1.32635
-2.44987
-0.338903
2.63637
3.78497
1.85317
-2.1348
-5.76082
-7.26237
-7.15011
-8.17558
-13.3217
-23.0468
-33.6921
-38.2994
-29.7954
-4.96132
33.1292
75.3655
109.58
124.842
115.348
82.4241
34.0309
-17.7074
-60.2672
-84.4458
-87.1053
-71.7386
-46.673
-1e-006
-1.7e-005
-5.7e-005
-0.000111
-0.000152
-0.000148
-9.1e-005
-2.8e-005
-4.4e-005
-0.000201
-0.00046
-0.000669
-0.000654
-0.000372
-2e-006
0.000113
-0.000292
-0.001132
-0.001887
-0.001875
-0.000771
0.000916
0.001728
-0.000299
-0.006831
-0.013262
0.032071
0.108242
0.136115
0.027505
-0.225075
-0.51268
-0.585296
-0.267635
0.318253
0.718785
0.415285
-0.698843
-2.01017
-2.48474
-1.35991
0.999191
2.96087
2.51861
-1.08612
-6.17411
-8.86321
-4.85464
7.90134
27.3575
47.6263
61.3979
63.3516
52.8059
34.0808
14.419
0.611649
-3.9731
-0.524685
6.42527
11.7173
12.3384
8.78394
4.32003
2.69954
5.67341
11.8273
17.4209
18.8897
15.2893
9.09943
4.80655
6.01197
12.9536
22.18
28.5712
28.6189
22.6149
14.5569
9.76528
11.7213
20.0328
30.7942
38.7836
40.2371
34.647
24.7327
14.9193
9.27273
9.71228
15.5245
23.8322
30.9353
33.9269
31.9398
26.4581
20.5871
17.6784
19.675
26.1146
34.3016
40.6675
42.4792
39.2277
32.8865
26.8284
24.04
25.6785
30.6106
36.2529
40.0861
40.932
39.2868
36.6181
34.252
32.6466
31.458
30.095
28.3888
26.7388
25.7677
25.8308
26.7471
27.9257
28.7207
28.6283
27.3855
24.8947
21.3641
17.4437
14.2541
12.9971
14.3614
18.0567
22.6843
26.4079
27.851
26.7548
24.1777
21.8158
21.1249
22.4834
24.7901
25.9841
24.2096
19.3975
14.4861
15.2559
28.1165
56.3826
96.8599
139.032
168.063
170.964
142.935
90.4004
28.788
-23.9184
-54.6444
-59.7424
-44.7395
-19.9726
4.6564
23.2275
34.306
39.3277
40.6428
40.489
40.8445
43.2463
48.0928
54.0162
57.9425
56.7833
49.713
39.48
31.5588
31.0099
39.199
52.3298
63.1776
65.1232
56.078
39.8737
24.1209
16.0086
18.5122
29.1461
42.0856
51.7314
55.7681
55.7609
55.2349
56.8928
60.7906
64.7568
66.4526
65.4494
63.8008
64.5375
69.4722
77.6661
85.9872
91.2516
92.418
91.1645
90.4809
92.2069
95.4611
97.2216
94.6347
87.5962
78.997
72.7162
70.7434
71.3785
70.1178
62.8372
49.074
32.7958
20.0137
15.0614
17.8509
24.2559
28.9253
28.5009
23.1375
15.6138
9.12815
5.4854
5.02156
7.55671
13.1531
21.6751
31.7161
40.2178
43.7182
40.5283
32.4115
23.9199
19.8491
22.2472
29.17
36.106
38.9968
36.8466
31.9942
28.1279
27.6192
30.0757
33.0701
34.0152
31.968
27.9581
24.0311
21.8962
22.132
24.293
27.4997
30.8479
33.4734
34.6126
33.6019
30.0969
24.5203
18.3235
13.4426
11.4463
12.887
16.9261
21.5551
