-0
-4e-006
-2.1e-005
-6.2e-005
-0.000113
-0.000148
-0.000155
-0.000149
-0.000181
-0.000299
-0.000499
-0.000692
-0.00076
-0.000659
-0.000502
-0.00052
-0.000897
-0.001579
-0.002198
-0.002274
-0.001609
-0.000564
-3.1e-005
-0.00109
-0.00458
-0.00992
-0.004609
0.037565
0.111239
0.110601
-0.020867
-0.229951
-0.380081
-0.319738
-0.050641
0.188596
0.011661
-0.716069
-1.65189
-2.06866
-1.43312
0.047662
1.27396
0.792582
-1.89426
-5.48916
-7.37217
-5.09549
2.0911
12.7245
24.2557
35.1286
46.2081
60.0876
78.3539
98.8505
115.185
119.238
105.685
75.9044
38.4026
5.33023
-13.1034
-13.1065
1.66482
22.7796
41.4962
52.4114
54.7551
51.1351
45.2808
40.2358
37.6824
38.1764
41.3528
46.0551
50.6541
53.5034
53.7729
51.9127
49.4411
48.1524
48.7911
50.4711
51.2098
49.3262
44.7773
39.5736
36.7691
38.7116
45.451
54.5733
62.2991
65.2661
62.3145
55.0695
46.9035
41.2631
40.3351
44.2971
51.5385
59.5064
65.8695
69.2694
69.4894
67.2835
64.1861
61.8488
61.3673
62.8867
65.6055
68.2711
69.8488
70.1084
69.715
69.6069
70.1612
70.6393
69.4748
65.1621
57.4629
47.8263
38.8733
33.3407
32.5925
35.7506
40.2595
43.0604
42.2419
37.9414
31.9841
27.0007
24.9487
26.133
29.1642
31.7803
32.1709
29.9347
26.2398
23.1952
22.5369
24.5913
27.989
30.4788
30.2835
27.1043
22.3031
18.1458
16.4654
17.7487
21.1203
24.991
28.2283
30.6909
32.9465
35.4512
38.0118
39.6716
39.3358
36.4747
31.7609
26.8362
23.5308
22.8403
24.5484
27.4285
30.0187
31.3903
31.5443
31.1419
31.1925
32.3903
34.7289
37.6021
40.0824
41.332
41.0827
39.8667
38.8092
39.0426
40.8976
43.4805
44.9502
43.3964
38.034
29.8729
21.5651
16.1676
15.4602
18.9067
23.8124
26.9271
26.6193
24.5707
25.5949
35.1138
55.7217
84.4353
112.279
127.427
120.489
89.306
40.9576
-10.5194
-49.8869
-66.9286
-60.1643
-36.5027
-7.28007
16.9403
30.2809
32.4565
27.2502
19.7032
13.8147
11.5011
12.7473
16.2567
20.171
22.6676
22.5927
19.979
16.1281
13.1011
12.608
15.1813
19.777
24.3994
27.0175
26.6684
23.7135
19.5668
16.0952
14.7545
16.0743
19.3847
23.1262
25.5666
25.7069
23.8799
21.6409
20.9642
23.059
27.739
33.5693
38.8187
42.5732
45.062
47.1303
49.3618
51.5117
52.7178
52.3446
50.6941
48.8313
47.9228
48.3491
49.4272
49.8421
48.6385
45.75
42.0052
38.5785
36.2518
35.0123
34.1248
32.5955
29.6949
25.2442
19.8009
14.4943
10.759
9.67121
11.4616
15.1647
19.1382
21.8225
22.572
21.711
20.1829
18.6004
16.91
14.7466
12.0429
9.48215
8.0896
8.39313
9.89497
11.3642
11.8219
11.4381
11.5805
13.7961
18.5159
24.3925
28.9252
29.9555
26.9854
21.5368
16.193
13.0609
12.7824
14.4783
16.5867
17.8248
17.817
16.9786
16.0557
15.6715
16.1371
17.3507
18.9474
20.5366
21.8281
22.7599
23.4912
24.2295
24.9555
25.2844
24.6836
22.8439
20.1384
17.5172
16.0741
16.2716
17.6233
19.0068
19.543
19.3594
19.6968
22.2596
28.078
36.6079
45.6925
52.4942
54.6703
51.3816
43.6053
33.5403
23.6671
15.8308
10.9039
8.93205
9.50528
12.1279
16.2181
20.923
25.1233
27.9633
29.7325
32.4737
39.5905
54.0024
75.5535
99.3027
116.1
115.99
93.2197
50.2582
-1.83572
-47.3954
-72.7543
-72.1267
-49.7229
-17.0894
12.6891
30.7486
35.2476
30.3648
22.7254
17.6487
17.0813
19.8487
23.2877
25.0278
24.1271
21.1304
17.5764
15.2276
15.262
17.8893
22.2719
26.9499
30.6537
32.9091
34.0686
34.8482
35.6759
36.3082
36.1004
34.54
31.7168
28.3874
25.4736
23.5454
22.6912
22.7876
23.9254
26.4289
30.5351
35.9345
41.5851
46.1891
48.9094
49.9382
50.2715
50.9516
52.2643
53.5257
53.5822
51.6976
48.2744
44.7645
42.8764
43.6351
46.6929
50.5272
53.2186
53.4005
50.8234
46.2767
40.9523
35.7615
30.9864
26.3776
21.6888
16.9661
12.7277
9.7201
8.55842
9.43742
12.044
15.6859
19.576
22.9061
25.0207
25.49
24.2194
21.5866
18.4137
15.7241
14.2778
14.2434
15.1443
16.0925
16.3455
15.7087
14.6821
14.0309
14.2812
15.3316
16.5959
17.4894
17.9837
18.7512
20.5734
23.6772
27.2929
29.9123
30.2176
27.8898
23.9404
20.1468
18.0252
18.0674
19.5491
21.1672
21.8214
21.1288
19.3372
16.946
14.4435
12.2961
11.1467
11.7064
14.349
18.5379
22.8432
25.5603
25.707
23.8412
21.8352
21.7998
24.7643
29.8675
34.8273
37.2875
36.2199
32.6152
28.8793
27.5282
29.7968
34.9671
40.8714
44.9345
45.3919
41.9654
35.8334
28.9636
23.3167
20.157
19.6706
20.9007
22.1372
21.6283
18.5783
14.2256
12.2811
17.9158
35.3216
64.4985
99.1776
127.565
136.59
118
73.3214
14.6772
-39.6082
-72.7634
-76.8866
-55.8332
-22.4948
8.08971
25.6786
28.374
21.4321
12.695
7.95301
8.59047
12.3228
15.8445
17.1375
16.3144
14.8599
14.2229
14.9053
16.4963
18.2384
19.6081
20.3721
20.4039
19.5471
17.7269
15.324
13.2432
12.5306
13.7356
16.408
19.2357
20.7832
20.4016
18.7034
17.1897
17.347
19.6504
23.2517
26.5438
28.2865
28.4717
28.2871
29.2765
32.1856
36.4108
40.3668
42.6091
42.8126
41.9077
41.4014
42.1877
43.8959
45.1768
44.5635
41.5464
36.8911
32.119
28.6514
26.9475
26.4589
26.0559
24.7383
22.1366
18.6091
15.0398
12.4252
11.5058
12.4152
14.5461
16.7713
17.9555
17.5569
15.9476
14.1727
13.2704
13.5742
14.6106
15.5838
16.1628
16.863
18.6665
22.1194
26.5253
30.1341
31.0681
28.6396
23.9839
19.4312
17.1825
18.0266
21.0824
24.5608
26.9301
27.6479
27.0958
25.8551
24.2161
22.1141
19.5356
16.9909
15.3805
15.4881
17.2999
19.9373
22.0585
22.6517
21.5302
19.3463
17.0052
15.2226
14.2466
14.0515
14.5614
15.7268
17.4073
19.1501
20.2426
19.9302
17.8813
14.4863
10.8149
8.29664
8.15956
10.8794
15.9185
21.7381
26.3103
27.9448
26.087
21.7372
17.1981
15.0004
16.5389
21.1823
26.3733
28.9179
26.8581
20.6948
13.3635
8.70701
9.32821
15.0332
22.6724
27.7791
26.9803
20.1303
11.0529
6.29206
12.2983
32.2291
63.5292
97.7119
122.658
127.198
106.054
62.822
9.5303
-37.7282
-65.2806
-67.2114
-47.2984
-16.3768
13.1043
32.4247
39.3172
37.0509
31.2199
26.2422
23.6844
22.7702
21.9613
20.3957
18.3717
16.7734
16.3206
17.2236
19.3086
22.2657
25.5976
28.4438
29.8696
29.2276
26.836
24.0817
22.7717
24.0079
27.3559
30.9759
32.6873
31.2989
27.3804
22.9239
20.0261
19.8091
21.8673
24.8726
27.6062
29.6725
31.4871
33.706
36.5658
39.6491
42.3303
44.2728
45.8226
47.7009
50.4016
53.6389
56.3235
57.1692
55.4694
51.6308
46.9957
43.032
40.5132
39.0266
37.3498
34.2252
29.1557
22.8571
16.9874
13.2724
12.7561
15.2137
19.3079
23.231
25.4783
25.4328
23.4207
20.312
17.0914
14.4366
12.7727
12.374
13.45
16.003
19.5472
23.0525
25.1832
24.9211
22.1592
18.0075
14.2408
12.4678
13.1777
15.646
18.3713
19.985
20.0075
19.0397
18.2294
18.4734
20.0043
22.2424
24.2034
25.1416
24.8261
23.6125
22.2251
21.3606
21.3363
22.0747
23.1804
24.1498
24.6924
24.8631
25.0578
25.6595
26.6752
27.5776
27.6196
26.4064
24.3628
22.5975
22.3487
24.1199
27.2137
30.0671
31.2446
30.486
28.919
28.4773
30.6731
35.5282
41.4312
45.9976
47.3149
45.0399
40.3675
35.2206
31.0344
28.1366
25.8394
23.2237
19.9491
16.6175
14.2265
13.409
13.8496
14.7133
15.7936
18.6945
26.9008
43.9114
70.1514
100.624
124.849
130.542
109.512
62.9899
2.9038
-52.0613
-84.3666
-85.4621
-59.5011
-20.7332
13.7837
32.2417
32.6833
21.9861
10.5652
6.11773
10.0649
18.2321
24.5834
25.2729
20.6835
14.5246
11.0059
12.1962
16.9944
22.2022
24.7569
23.5963
20.148
17.2877
17.3893
20.8546
25.8198
29.3048
28.9488
24.4631
17.8116
12.0802
9.80233
11.6356
16.2727
21.5082
25.494
27.6451
28.574
29.4303
31.0884
33.7804
37.2474
41.1205
45.0575
48.6833
51.3687
52.2804
50.838
47.2885
42.8925
39.4958
38.5189
40.1408
43.0776
45.1601
44.5358
40.7139
34.8078
28.8524
24.5812
22.5873
22.1223
21.7975
20.5909
18.5245
16.5104
15.6311
16.2742
17.7763
18.8693
18.435
16.2529
13.058
10.0802
8.29575
7.89874
8.48938
9.47034
10.5551
11.8436
13.4915
15.3991
16.9621
17.5319
16.9302
15.6466
14.6542
14.7224
15.9213
17.5447
18.5599
18.4164
17.3453
16.1498
15.6448
15.9925
16.581
16.5023
15.3707
13.7177
12.7396
13.4199
15.7534
18.6357
20.5329
20.5703
19.2552
18.1136
18.6568
21.194
24.5443
26.7451
26.4879
24.1307
21.5668
21.1175
24.0524
29.6746
35.7033
39.5422
39.4699
35.339
28.3722
20.4949
13.6854
9.48496
8.78603
11.5282
16.5051
21.3963
23.7644
22.5527
19.3259
18.5265
25.7685
44.6638
73.6913
105.194
127.457
129.451
106.222
62.0249
9.38261
-35.7314
-60.366
-59.6497
-38.119
-6.82753
21.9915
39.8798
44.6954
39.8064
31.2431
24.4202
21.9952
23.7089
27.405
30.5636
31.5389
30.0758
27.2011
24.5903
23.7772
25.3963
28.8131
32.4951
34.7944
34.7489
32.6163
-0
-1e-006
-6e-006
-2e-005
-3.9e-005
-5.2e-005
-5.2e-005
-4.3e-005
-4.4e-005
-7.2e-005
-0.000134
-0.000211
-0.000263
-0.00026
-0.000211
-0.000178
-0.000234
-0.000409
-0.000642
-0.000798
-0.000751
-0.000486
-0.000192
-0.000249
-0.001132
-0.002951
-0.002135
0.009281
0.037533
0.044376
-0.002976
-0.081631
-0.147365
-0.138377
-0.045247
0.071396
0.089635
-0.073934
-0.391193
-0.663577
-0.659537
-0.31155
0.168179
0.364098
-0.066013
-1.087
-2.16666
-2.3612
-0.82395
2.76461
7.94672
13.66
18.6667
22.0625
23.6569
23.9099
23.6288
23.4715
23.6398
23.8622
23.7187
23.0193
21.9993
21.2481
21.2752
22.1188
23.2065
23.6976
23.0752
21.6499
20.5091
20.8319
23.1167
26.637
29.7353
30.7988
29.2512
26.0201
23.0608
22.233
24.3282
28.7088
33.7567
37.7628
39.7308
39.6719
38.3262
36.6326
35.2
34.1624
33.2508
32.0274
30.1335
27.5047
24.423
21.4617
19.2579
18.3558
18.7585
19.7783
20.1985
18.8998
15.7571
12.4751
12.8141
21.3769
41.0911
70.3361
101.584
122.905
122.512
94.683
43.8035
-15.9671
-66.057
-91.3691
-86.8233
-59.0741
-22.5881
7.68319
22.9249
23.0682
14.7385
6.28301
3.14674
5.94468
11.598
16.1422
17.2145
14.9875
11.424
8.80041
8.46339
10.3447
13.3446
16.0833
17.6029
17.7265
16.9221
15.9073
15.198
14.9224
14.9
14.9152
14.952
15.2016
15.8825
17.0439
18.3849
19.4682
20.0848
20.4103
20.9352
22.1712
24.3395
27.2566
30.4175
33.2539
35.4602
37.1017
38.5098
40.0853
42.0874
44.4564
46.8161
48.6267
49.4389
49.0596
47.5402
45.1017
41.9303
38.1733
33.8919
29.2485
24.6018
20.3801
16.9514
14.3459
12.2691
10.3266
8.29919
6.43265
5.33502
5.57857
7.33636
10.1549
13.0744
15.0818
15.5905
14.8313
13.6072
12.9958
13.7657
15.9674
18.9552
21.7635
23.6249
24.3069
24.1876
24.0341
24.5402
25.8778
27.5684
28.6926
28.3729
26.3888
23.5063
21.2647
21.1192
23.5058
27.43
30.9131
32.1457
30.5644
27.3353
24.6315
24.3454
26.9037
31.0058
34.4554
35.4873
33.8361
30.8478
28.6831
29.141
32.6768
38.2696
43.8464
47.1554
46.6899
42.2419
35.0285
27.2135
21.037
17.9099
17.8147
19.3387
20.3844
19.3071
16.0597
12.5498
12.3351
19.2776
35.7528
60.7567
88.995
111.609
118.818
103.949
67.1548
16.6113
-33.6602
-68.997
-80.2022
-67.1654
-38.4166
-6.69941
17.0243
27.8016
27.4487
21.805
16.6835
14.9125
15.8684
17.2035
17.0617
15.3407
13.315
12.3535
12.8223
14.0493
15.0731
15.519
15.7875
16.5506
18.0075
19.6663
20.8118
21.1167
21.0593
21.5295
23.104
25.4172
27.3471
27.7719
26.4895
24.5233
23.5254
24.7458
28.2067
32.6871
36.5466
38.6762
39.2324
39.4463
40.7458
43.8964
48.542
53.4301
57.1552
58.7864
58.2456
56.2813
53.9048
52.1017
51.4586
52.027
53.2251
53.8973
52.679
48.5305
41.3435
32.1982
23.1483
16.3411
13.0687
13.1607
15.2308
17.4181
18.3464
17.6341
15.8248
13.7752
12.0557
10.7844
9.85006
9.24906
9.25571
10.1423
11.8396
13.7302
14.9375
14.8216
13.3499
11.1188
9.0662
8.05843
8.58331
10.6515
13.8618
17.499
20.666
22.5169
22.5839
21.1251
19.1303
17.8264
17.9923
19.4892
21.3644
22.4892
22.344
21.4318
20.8235
21.3921
23.1667
25.3463
26.9096
27.3946
27.2455
27.4379
28.7126
30.9537
33.1016
33.733
31.8753
27.4817
21.4949
15.3679
10.5167
7.77705
7.14493
7.86458
8.82621
9.45155
10.6333
15.0773
26.396
46.7995
74.3518
101.74
117.976
113.09
83.4562
34.9918
-18.2124
-59.6403
-77.6157
-70.2173
-45.2746
-15.6566
7.25949
18.3067
19.2174
15.5409
12.5424
12.3105
13.7624
14.5858
13.4895
11.149
9.48252
10.1703
13.3984
17.7703
21.2564
22.2941
20.6567
17.4347
14.3994
13.1262
14.2306
17.1686
20.4906
22.6342
22.7652
21.2334
19.2848
18.2669
18.7556
20.2504
21.5521
21.8165
21.2243
20.9709
22.4488
26.1916
31.4251
36.5947
40.3629
42.515
44.0245
46.2271
49.6451
53.4882
56.098
56.05
53.2184
48.9819
45.3575
43.7015
43.9636
44.7131
44.1218
41.1046
35.9472
30.0522
25.146
22.2967
21.4111
21.3753
20.7022
18.3177
14.1081
9.01124
4.72036
2.8582
4.22008
8.1855
12.935
16.2676
16.7953
14.7022
11.6618
9.86741
10.6905
13.8797
17.7942
20.4896
20.9705
19.7482
18.3455
18.1716
19.5044
21.3447
22.1786
21.1172
18.5868
16.2351
15.785
17.9687
21.9844
25.9495
28.0055
27.384
24.8141
22.0492
20.9135
22.3526
26.0033
30.488
34.2009
36.0964
36.0487
34.8818
33.8808
34.1691
36.1836
39.4003
42.4441
43.6202
41.642
36.3901
29.0542
21.7312
16.5503
14.7686
16.1329
18.9262
20.8186
20.0514
16.7591
13.508
14.7764
25.2332
47.0271
77.4636
108.369
128.102
126.08
97.8841
48.5017
-8.54272
-56.2106
-81.0207
-78.6241
-55.0304
-22.934
4.73841
20.2328
23.0617
17.9979
11.2811
7.21266
7.01422
9.7338
13.8172
18.0128
21.3689
22.9324
22.0274
18.8463
14.9693
12.7402
13.9548
18.4886
24.1244
27.8635
27.8581
24.567
20.4341
18.1
18.7236
21.3278
23.7355
24.2544
22.9703
21.5835
22.1608
25.5667
30.8474
35.8158
38.4903
38.3115
36.5391
35.4643
37.156
42.3694
50.1122
58.1232
63.7799
65.298
62.5816
57.2786
52.1371
49.6263
50.6835
54.1905
57.6293
58.4074
55.347
49.2625
42.4203
37.107
34.2904
33.2441
32.2315
29.6968
25.3198
20.0711
15.6482
13.471
14.0276
16.6238
19.8016
21.9118
21.7465
19.1308
15.0008
11.038
8.92599
9.50254
12.2522
15.6384
17.9926
18.5671
17.9623
17.6078
18.6369
20.9714
23.2823
23.7893
21.5999
17.3726
13.0103
10.5
10.723
13.031
15.8426
17.8203
18.6044
18.9727
20.1388
22.781
26.5714
30.3085
32.6202
32.7133
30.8633
28.1933
26.106
25.6243
26.9675
29.6345
32.7737
35.7107
38.1292
40.0342
41.3888
41.6991
40.0951
35.8304
28.9139
20.5416
12.875
8.12013
7.28943
9.6159
12.8719
14.8968
15.3894
16.9678
24.3443
41.6698
69.0844
100.616
125.151
130.657
109.937
65.0842
7.87777
-44.4941
-76.4945
-80.7057
-60.5434
-27.8316
3.12552
21.9542
25.9357
19.5235
10.5453
5.62765
7.17282
13.2064
19.4791
22.3915
20.9053
16.664
12.6613
11.3813
13.5396
17.8848
22.0848
24.074
23.1534
20.2849
17.394
16.3838
18.0167
21.5272
25.1202
27.0597
26.6502
24.6396
22.6868
22.3756
24.2377
27.5895
31.0364
33.4575
34.6337
35.3143
36.6826
39.5722
43.9964
49.066
53.4624
56.0528
56.4884
55.314
53.8022
53.3069
54.6168
57.6106
61.1458
63.6875
64.0654
62.0201
58.3181
54.0986
50.0418
45.9349
40.977
34.6894
27.6471
21.479
18.0915
18.4643
21.9226
26.3163
29.2156
29.2808
26.7847
23.3118
20.6915
19.9814
21.0281
22.9029
24.5368
25.3025
25.1014
24.1387
22.7877
21.5251
20.913
21.4638
23.2908
25.8535
28.0472
28.7326
27.5159
25.2
23.4263
23.726
26.4506
30.3724
33.3223
33.4846
30.7034
26.6069
23.765
23.9871
27.1939
31.4234
34.0229
33.324
29.7946
25.8402
24.4835
27.5718
34.5524
42.758
48.6709
49.8414
46.1222
39.7232
34.0381
31.9571
34.5191
40.4588
46.8447
50.6243
49.8868
44.7189
36.9649
29.3804
24.3717
23.0408
24.8024
27.7141
29.3176
27.8757
23.7555
20.1265
22.4596
36.2213
63.5517
100.336
135.907
156.042
149.085
112.024
53.3071
-9.47882
-56.6883
-75.0255
-62.9114
-30.4341
6.26009
32.7372
42.2235
37.0006
25.3266
16.0032
14.0924
19.3861
27.9649
35.2528
38.4288
37.1943
32.967
27.7665
23.1756
20.1596
19.1968
20.4335
23.5343
27.5919
31.3122
33.5424
33.7881
32.395
30.285
28.4101
27.1946
26.5664
26.3021
26.3705
26.9795
28.3607
30.4344
32.7712
34.926
36.8095
38.7929
41.2909
44.3364
47.496
50.2758
52.6187
55.0716
58.2456
62.0474
65.4999
67.3902
67.0992
65.3337
63.5279
62.4786
61.3474
58.0143
50.7995
40.3603
30.2432
25.1712
28.0192
37.5906
48.8067
55.5546
54.3104
46.1791
36.0489
29.3436
28.6556
32.3986
36.2674
36.1751
30.8818
22.4934
14.9279
11.452
12.8898
17.5201
22.4942
25.52
25.8845
24.3959
22.5184
21.3869
21.3404
21.9318
22.3336
21.8078
20.1398
17.8487
16.1046
16.2918
19.2907
24.5859
30.205
33.4592
32.5344
27.9107
22.6259
20.8157
25.0088
34.164
43.6886
47.8505
43.2767
31.5094
18.5353
11.4611
14.434
25.9902
39.8625
48.5809
47.6678
38.0361
25.2309
16.1476
15.4387
23.6277
37.4638
51.8465
62.097
65.2921
60.8685
50.5033
37.6798
26.7265
21.3413
22.9254
29.8333
37.9491
42.7191
41.6236
35.4608
27.7981
23.0206
24.1861
32.3183
46.8835
66.62
89.6185
112.234
128.301
130.295
112.521
75.1312
26.0953
-20.7746
-51.4891
-58.249
-43.0105
-16.0381
9.64194
24.7394
27.4355
22.6322
17.7737
18.0749
23.9357
31.7213
36.7355
36.3243
31.0934
23.9881
18.3508
16.3249
18.2382
23.0285
29.1856
35.364
40.4246
43.3286
43.0831
39.1458
31.9381
23.2027
15.688
12.074
13.7125
19.9944
28.5
36.1261
40.5939
41.5333
40.3644
39.2884
39.9441
42.7202
46.7851
50.6378
53.1206
53.9194
53.6004
53.1509
53.634
55.7271
-2e-006
-2.6e-005
-9.5e-005
-0.00019
-0.000256
-0.000239
-0.000157
-0.000103
-0.000206
-0.000524
-0.00095
-0.00124
-0.001169
-0.000752
-0.000354
-0.000499
-0.00145
-0.00287
-0.003863
-0.003496
-0.001603
0.000672
0.000976
-0.003403
-0.014446
-0.025093
0.043945
0.195081
0.243106
0.030955
-0.437243
-0.841228
-0.823723
-0.229983
0.607519
0.927705
0.095377
-1.79708
-3.62574
-3.77974
-1.51444
1.96765
3.87803
1.61677
-4.96162
-12.2764
-14.2239
-5.37538
15.4234
43.7243
71.3372
90.3757
97.0626
93.2139
84.1906
75.39
69.5893
66.8455
66.2623
67.9612
73.0139
82.0284
93.0959
101.859
103.854
97.6202
86.3232
76.4198
73.8919
80.3753
91.7726
100.247
98.621
84.6361
62.6351
41.5333
30.843
35.7509
54.4588
79.072
99.3535
107.477
101.422
85.6443
68.5662
58.1912
58.2131
66.4349
76.5075
82.0224
80.2928
74.0829
70.2617
76.1683
95.7035
126.867
162.048
190.55
202.176
190.77
156.519
106.404
52.6987
9.88309
-10.3494
-3.9671
22.9879
56.3775
80.1051
84.1359
69.8145
49.4153
38.8186
47.7017
73.4572
102.461
118.273
111.829
86.9291
57.59
39.1212
39.2785
54.7995
75.0528
89.458
93.1521
87.7843
77.7312
66.3772
54.955
44.4498
37.6
38.229
48.2406
64.5711
79.4186
84.4718
76.5045
60.1869
45.6238
42.0733
52.267
70.6323
86.9449
92.9628
87.4108
76.1847
68.175
69.3135
79.0388
91.3297
98.7569
97.4037
89.1584
79.9717
75.448
77.105
81.7177
84.0582
80.5909
71.9274
62.142
55.6371
53.8152
54.606
54.4516
51.2748
46.0231
41.7416
40.878
42.7955
44.3412
42.1341
35.3068
26.2851
19.5919
18.5367
22.9561
29.3597
33.1551
31.3929
24.8716
17.7026
15.2951
21.3299
35.2921
52.2281
64.6299
67.0903
59.6222
48.3542
42.4718
48.3626
64.9523
83.5246
92.6822
85.7277
65.2655
41.6414
26.3541
24.9522
33.9284
44.0621
47.4818
43.3623
37.9588
39.1036
49.7824
65.5834
77.5821
78.682
68.7828
54.8943
46.2991
48.4261
59.6749
73.2314
81.9832
83.3832
80.7127
80.0957
86.2837
99.532
115.731
129.253
136.112
135.954
131.288
125.251
120.192
116.916
115.337
115.195
116.186
117.554
117.817
115.894
111.46
106.028
102.185
101.802
105.302
112.127
122.356
137.886
160.742
190.032
218.733
234.612
225.765
188.123
130.036
69.8928
27.5386
14.4824
28.8551
57.7826
85.6354
102.159
105.935
101.648
94.8751
88.3574
82.1125
75.802
70.6951
68.9205
70.7648
73.0077
70.2608
58.7383
39.623
19.3536
5.86038
3.8107
11.3821
22.0373
28.7928
28.3699
22.9188
17.7709
17.3454
22.1866
28.8261
32.243
29.0467
19.8764
8.98044
1.85372
2.40023
10.6743
23.2885
35.2695
42.6166
44.327
42.4017
40.3861
40.9213
44.4043
49.0169
52.2192
52.5548
50.6512
48.8222
49.4233
53.2578
58.8409
63.136
63.077
57.5317
47.9705
37.844
30.7118
28.2082
29.2914
31.0202
30.5922
27.2781
22.8762
20.3094
21.4426
25.4749
29.3791
29.8781
25.8518
19.2345
13.8007
12.6682
16.1495
21.6481
25.485
25.3426
21.6309
16.8176
13.62
13.0835
14.0363
14.3233
12.5033
8.92258
5.41319
4.09395
5.9211
10.1973
15.125
18.854
20.4167
19.9853
18.545
17.2264
16.7875
17.3607
18.5342
19.6337
20.037
19.5199
18.2847
16.852
15.7314
15.2261
15.3954
16.327
18.2863
21.5293
26.1028
31.3987
36.2024
39.1855
39.6928
38.2689
36.4865
36.0174
37.6311
40.7048
43.6905
45.2549
45.3996
45.639
48.0402
53.8309
62.315
70.9319
76.4999
76.7757
71.7204
63.472
55.1812
49.6029
48.0194
50.0155
54.058
58.219
60.8299
60.9486
58.8917
56.7487
58.4029
68.5034
90.1612
122.148
157.396
184.286
190.936
170.767
126.504
70.0856
17.9377
-16.0379
-26.3295
-17.2692
0.241498
14.9102
20.3194
16.7782
9.24809
3.34134
1.95399
4.34446
7.57815
8.95508
7.60886
4.49072
1.35479
-0.352089
-0.105024
1.83812
4.86722
8.24052
11.1179
12.6889
12.4346
10.4778
7.68857
5.31294
4.359
5.0538
6.74469
8.36292
9.02937
8.4701
7.03269
5.34934
3.98856
3.2502
3.24711
4.05645
5.76428
8.37812
11.6986
15.3319
18.8858
22.2033
25.4448
28.8832
32.6959
36.6786
40.2548
42.744
43.6097
42.7977
40.7867
38.338
36.1272
34.422
32.8282
30.6028
27.079
22.2093
16.7572
12.1037
9.58136
9.76041
12.093
15.1034
17.0757
16.8582
14.3733
10.6397
7.2198
5.52877
6.24245
9.14042
13.2074
17.0759
19.4156
19.3547
16.7785
12.3694
7.46155
3.56435
1.8099
2.5112
5.0264
8.05181
10.3203
11.1949
10.9541
10.56
11.0365
12.8236
15.5012
18.04
19.3607
18.9098
17.0229
14.7046
13.066
12.727
13.5175
14.5878
15.0147
14.3483
12.8657
11.3892
10.7
11.0359
12.0084
12.8997
13.1949
13
12.9812
13.8769
16.0178
19.0223
22.0649
24.4285
25.9912
27.3229
29.2136
32.0804
35.6067
38.9179
41.1187
41.9024
41.5855
40.8071
39.9721
38.8679
36.8896
33.593
29.2678
25.0735
22.5437
22.6975
25.4669
29.5303
32.9681
34.3494
33.8826
33.9061
38.3263
50.9189
72.8569
100.833
126.861
140.657
133.861
104.367
58.3829
8.64444
-30.5453
-49.3026
-46.131
-27.8159
-5.41985
11.1966
17.5758
15.3783
9.91988
6.3783
7.07894
11.0458
15.6226
18.5228
19.0453
17.9602
16.5408
15.6046
15.1625
14.6948
13.6435
11.7311
9.06338
6.08007
3.38888
1.67633
1.48103
2.83033
5.12818
7.37993
8.69938
8.90225
8.63261
8.95332
10.597
13.3734
16.3256
18.3633
19.1156
19.2643
20.1551
22.9232
27.6888
33.4267
38.5004
41.5575
42.176
41.0325
39.4631
38.7562
39.6855
42.2305
45.653
48.7466
50.2825
49.4749
46.3181
41.6661
36.8846
33.1991
31.1031
30.1341
29.2613
27.5199
24.6173
21.0993
18.0222
16.266
15.9839
16.5548
17.0162
16.7283
15.7509
14.7404
14.3985
14.9478
15.9635
16.6616
16.4656
15.3872
13.9933
12.9944
12.6542
12.5748
11.9736
10.2653
7.62859
5.0911
3.94669
4.9468
7.74561
10.9962
13.1241
13.2707
11.8704
10.3922
10.4329
12.6951
16.4491
19.8847
21.1799
19.585
15.9737
12.428
11.0856
12.961
17.3322
22.1593
25.1591
25.0396
22.198
18.5079
16.2551
16.9043
20.3112
24.7785
28.0471
28.5939
26.5345
23.596
22.201
24.1183
29.4312
36.4076
42.3431
44.929
43.3664
38.6064
32.7166
27.6493
24.3223
22.5356
21.4751
20.4898
19.4813
18.7041
18.3148
18.3048
18.9396
21.5976
29.001
44.1229
67.9192
97.0552
123.373
136.214
127.052
94.2041
44.9258
-6.71179
-45.4859
-61.4315
-53.8081
-30.575
-3.994
15.2448
22.2356
18.6262
10.1254
2.71376
-0.29175
1.00323
4.19424
6.59401
6.84172
5.26832
3.32867
2.52852
3.58657
6.13007
8.96649
10.841
11.1276
10.1811
8.97006
8.44999
8.99267
10.1967
11.3642
12.1051
12.6356
13.6552
15.6333
18.2918
20.6024
21.4916
20.7303
19.3204
19.0846
21.6456
27.4352
35.288
42.8512
47.7495
48.7083
46.307
42.7902
40.9988
42.9885
48.9973
57.1053
64.104
67.037
64.6826
58.0275
49.5366
41.8539
36.7294
34.3244
33.6781
33.4613
32.5972
30.5512
27.3797
23.8335
21.3048
21.3594
24.7581
30.6617
36.4074
38.4686
34.7278
26.0445
16.4266
10.9567
12.9079
21.7092
33.1286
41.7079
43.9413
39.9584
32.8985
26.5622
23.0785
22.2879
22.758
23.5182
25.0755
28.7123
35.0872
43.2458
50.6976
54.7326
53.9556
48.8818
41.6251
34.7878
30.3695
29.2463
31.4286
36.2712
42.6149
48.8552
53.2773
54.6636
52.7903
48.7731
44.8524
43.0846
44.3545
47.9012
51.8495
54.4649
55.1681
54.7085
54.3579
54.8342
55.5151
55.1226
52.6942
48.5196
44.4364
42.6158
44.0799
47.8628
51.7143
53.6472
53.4255
52.6861
53.863
58.2773
65.0012
71.2745
74.0869
71.9272
65.317
56.1567
46.6115
38.1724
31.7435
28.0894
27.7577
30.676
35.7332
41.245
46.4914
53.1234
65.0114
85.5775
114.033
143.178
161.045
156.29
124.777
73.2028
17.1881
-25.6944
-43.8868
-36.8303
-14.0269
10.664
26.1206
28.6203
21.8628
13.3233
9.57373
13.2118
22.2438
32.0282
37.8594
37.0907
30.1086
19.7986
10.2607
5.02321
5.79887
11.95
20.923
29.3646
34.5279
35.1148
31.5507
25.6722
20.1528
17.6119
19.6365
25.9685
34.3293
41.1783
43.4105
39.9391
32.4641
24.7696
20.742
22.4888
29.4592
39.0375
48.1735
54.8469
58.531
59.726
59.308
58.1701
57.2694
57.7248
60.6063
65.9801
72.5309
77.8377
79.5431
76.6668
70.3425
63.1507
57.5639
54.2753
52.0998
49.0321
43.9206
37.3739
31.5486
28.5683
29.0747
31.5406
33.2887
32.1661
28.0071
22.8342
19.4982
19.796
23.1355
26.7871
27.4172
23.3696
15.8876
8.66331
5.76299
9.19024
17.6646
27.277
33.7074
34.5883
30.5778
24.717
20.3257
19.0871
20.2721
21.6204
21.0674
18.1498
14.3774
12.2181
13.4527
18.15
24.5279
29.878
32.246
31.2542
28.1117
24.6938
22.3767
21.3133
20.8133
20.3272
20.1859
21.3128
24.3826
28.8693
32.9516
34.4909
32.6174
28.5876
25.2066
25.1024
28.8575
34.6406
39.3234
40.9227
39.9941
39.3519
41.9512
48.5958
56.7254
61.8336
60.087
50.8159
37.119
24.259
16.8618
16.6835
21.9784
-2e-006
-2.5e-005
-7.2e-005
-0.000132
-0.000178
-0.000187
-0.000156
-0.000131
-0.000177
-0.000349
-0.000634
-0.000906
-0.001013
-0.000884
-0.000638
-0.000563
-0.000939
-0.001796
-0.00275
-0.003151
-0.002523
-0.001135
-0.000348
-0.002409
-0.009664
-0.015704
0.051756
0.119617
0.132706
-0.000379
-0.238731
-0.500203
-0.561421
-0.337372
0.122129
0.482485
0.245014
-0.725799
-2.03503
-2.80252
-2.23805
-0.381866
1.57996
1.74807
-1.11593
-6.17063
-9.96438
-7.54742
4.80103
26.7849
53.0596
74.8926
84.3279
78.7694
62.8425
46.5357
40.0657
48.5948
69.4063
93.6384
111.309
116.625
110.601
99.6308
91.3204
90.5706
97.4118
108.095
117.843
123.395
123.99
120.591
114.863
107.714
99.105
88.632
76.5638
64.1203
53.7014
47.998
48.895
56.2661
67.7159
79.1834
86.8695
88.6945
85.3955
80.0375
76.0629
75.1864
76.396
76.7942
73.7587
67.1123
59.6024
55.1248
55.8224
59.9715
62.0943
56.4309
41.0143
20.1993
3.36093
0.35166
15.5862
44.9153
76.8625
98.5726
102.543
90.4585
71.4983
56.7914
52.842
58.3538
66.2752
69.3357
64.9219
56.3762
50.0599
50.3353
56.229
61.9319
61.282
52.3276
39.2136
30.0534
31.7862
45.6551
65.9745
83.2559
89.3809
82.1143
66.1878
50.5273
43.3808
47.9667
61.2731
76.2332
85.5652
85.3728
76.4043
63.2391
51.3545
44.6565
44.0095
47.193
50.7116
51.5103
48.5281
43.8899
42.1813
48.5664
66.0807
93.2461
123.197
145.647
150.653
133.419
97.4031
53.6974
16.7288
-1.83056
1.75999
21.71
46.0864
62.8339
65.8673
57.5679
46.5465
42.0813
48.5176
63.0672
77.8328
85.0933
81.9293
71.7126
61.6054
57.7185
61.4666
69.3941
76.0155
77.5461
74.463
70.4828
69.4088
72.2314
76.0735
76.4791
70.6236
59.842
49.0326
44.0752
48.0838
59.4752
72.7988
81.8857
83.5282
78.9976
73.0307
70.8693
74.9333
83.3989
91.6294
95.2098
92.7659
86.8217
81.6922
80.6881
84.0621
89.1926
92.9921
94.1802
94.2261
95.5369
98.9489
102.222
101.257
93.3254
79.5204
64.9243
55.5769
54.5715
59.997
66.4198
68.8137
65.9662
61.4037
60.0896
64.4455
71.827
76.3028
72.4097
59.6087
42.9768
30.5269
28.1175
35.9977
48.955
59.6114
62.9785
58.989
51.5462
45.5457
43.6516
45.2072
47.8772
49.8031
50.8366
51.9571
53.6777
54.9637
53.8389
49.4306
43.3856
39.4716
41.1772
48.8763
58.8031
65.0278
63.4211
54.5027
43.8269
38.695
43.5469
57.1634
73.4102
85.28
89.2037
86.8291
82.9361
81.5083
82.8101
84.1103
82.8383
79.7667
78.8775
83.8176
93.8649
102.957
102.936
90.0352
68.7035
50.2451
46.0751
60.1964
85.6456
108.305
115.564
103.866
80.8475
60.6587
55.7506
70.5504
100.14
133.784
160.262
171.762
165.1
141.469
105.957
67.2112
35.6243
20.2491
24.643
44.3749
68.5345
85.4043
88.761
81.197
72.1762
71.4376
82.5595
100.189
113.432
112.803
96.4097
71.6395
50.7357
44.3741
55.6694
78.9452
103.16
118.226
119.47
108.727
92.058
75.8254
64.1119
58.4234
58.6573
64.2325
74.0293
85.1208
93.0924
93.6924
85.7212
72.5416
60.7709
56.2717
60.3323
68.4247
73.6932
72.3776
67.4391
67.2626
79.7924
106.04
137.659
160.904
164.786
148.265
121.15
98.6807
92.708
104.884
126.47
143.967
147.069
133.993
111.524
90.3853
79.2174
80.5909
90.971
103.771
113.199
117.095
116.612
114.576
112.825
110.441
104.315
91.661
72.5137
50.7066
32.7428
24.7705
28.9998
42.3979
58.2733
69.9144
74.0526
71.8703
67.3792
64.6116
65.4945
69.8128
76.3746
84.3378
93.1991
101.339
105.22
100.955
86.7473
65.4463
44.1196
30.7328
29.7536
39.6857
54.4027
67.4935
75.7706
80.4427
84.6636
89.7848
93.8012
92.6599
83.8228
68.9865
53.8006
44.5755
44.7991
53.3107
65.5908
76.7939
84.1312
87.5075
88.0292
86.5097
82.8935
76.6269
67.7387
57.167
46.4195
37.0784
30.7789
29.4415
34.5728
46.3859
62.9213
80.0384
93.1828
100.536
104.387
110.262
122.975
142.562
162.362
171.846
162.29
132.065
88.29
44.1434
12.7278
1.61155
10.4445
32.6598
59.4357
83.3499
100.195
109.02
110.747
107.668
102.833
99.5317
100.268
105.483
112.895
118.361
118.263
111.208
99.2129
86.4376
76.8866
72.8197
74.133
79.3292
86.4642
93.6083
98.7247
99.8066
96.0047
89.0357
83.4008
84.3831
94.5751
111.001
125.54
129.526
119.286
99.4255
81.0891
75.6367
87.7177
112.128
136.666
149.317
145.053
128.767
111.98
105.712
114.078
131.949
147.986
151.016
136.27
108.098
77.7192
57.6684
55.8494
71.9677
98.1326
123.003
137.034
136.096
122.251
101.677
80.9295
64.3459
53.7873
49.639
52.1035
61.3885
76.5054
94.2818
109.255
115.714
110.654
95.8317
77.4778
63.2994
58.5971
63.4686
73.0748
80.6916
81.8806
76.7801
69.7637
66.7177
70.7446
80.4766
91.3925
98.8461
100.962
99.2456
96.7006
95.0643
93.424
89.6695
82.9513
75.3337
71.1127
73.6188
81.8932
90.5189
92.6919
84.8374
69.4334
53.9854
46.6257
51.1696
65.2453
82.5958
97.4003
107.203
113.048
116.624
117.264
111.945
98.1779
77.7198
57.3692
45.8296
48.5721
64.0078
83.9115
97.8892
99.0262
87.5728
70.6542
58.4511
59.1979
75.5842
103.577
133.802
154.697
156.692
136.471
99.3435
57.8709
26.8969
16.7424
27.8664
50.4647
69.9437
75.0491
63.9868
44.6804
29.4652
27.1283
38.1038
55.217
69.0205
73.4507
68.9095
60.4371
53.3184
49.7979
48.6637
47.4441
45.1723
43.3089
44.3964
49.4568
56.341
60.9756
60.0661
53.7188
45.7376
41.5834
45.0558
55.9074
69.8771
81.3627
86.5738
85.2638
80.2296
74.8047
70.8268
68.2505
66.4339
65.5197
67.019
72.4312
81.4901
91.3126
97.7934
98.3704
94.071
88.8354
86.6758
88.6459
91.6318
90.4397
81.5443
66.1956
50.2442
40.6914
41.5666
51.5404
65.1134
75.6785
78.9543
74.2314
63.5109
49.3594
33.8449
19.1362
8.51242
6.05823
14.7072
34.0724
59.1401
81.6998
93.8277
91.9016
78.1715
59.2775
42.4228
32.1147
28.5971
29.0308
30.2078
31.0017
32.9451
38.8311
50.3197
66.1859
82.4307
94.1798
98.4412
95.7556
89.7784
84.8081
82.8442
82.0944
78.2681
67.3911
50.5971
35.2292
31.7526
48.3647
85.4751
133.118
174.228
192.314
179.571
140.781
90.9595
48.0571
24.5544
22.8289
35.9638
53.475
67.3005
75.2572
80.3936
88.3515
103.864
128.823
161.28
195.408
221.786
229.797
211.6
167.25
107.376
50.6684
17.3128
18.9644
52.7317
102.614
147.804
173.043
175.386
163.922
152.33
150.521
159.244
170.908
175.869
168.696
152.172
135.519
129.989
142.643
172.359
208.642
235.863
239.931
214.412
164.239
105.038
56.4843
34.0777
42.3796
73.113
109.801
135.786
142.245
131.557
114.731
103.595
103.954
112.19
118.428
113.399
95.9688
74.8991
64.204
74.4838
105.987
146.918
180.012
191.588
178.929
150.443
119.866
99.5818
94.837
104.205
123.278
147.904
174.585
198.591
213.211
211.331
190.014
153.346
112.15
79.36
63.3029
64.3303
75.7028
89.4708
100.884
109.986
118.964
128.25
134.832
134.318
124.972
109.409
93.7183
83.6188
81.2655
84.3253
89.0615
93.147
97.115
102.598
109.86
116.046
117.472
112.779
105.105
100.894
105.82
120.72
140.005
154.595
157.467
147.17
128.281
107.656
90.7376
79.4797
73.7662
74.0083
81.7838
98.0815
120.288
141.052
151.037
144.106
121.942
94.3518
74.4027
70.7506
82.6534
100.264
110.815
106.337
88.928
70.3009
65.287
83.9151
125.697
179.052
225.855
248.802
238.739
197.306
136.524
74.2053
27.4022
5.97497
9.83004
29.9376
53.4885
69.9407
75.8779
74.9775
74.6143
80.2216
91.4865
102.719
106.394
97.8835
78.2497
53.8658
33.2239
22.8345
25.08
38.3121
58.3432
80.079
98.6294
109.928
111.46
103.081
87.2733
68.8199
53.4267
45.2786
45.3694
51.3329
58.9704
64.4535
66.1483
65.1992
64.7607
68.1744
76.7168
88.5418
99.1098
103.221
97.5354
83.1367
65.751
53.3565
52.513
64.7973
85.5868
106.176
117.926
116.424
103.415
85.4295
69.9547
61.4547
59.7368
60.9001
60.5232
56.6396
50.9257
47.2651
48.8839
56.0075
65.0535
70.7093
69.1587
60.5072
49.0195
41.2092
42.1302
52.1091
66.307
76.9825
77.6053
66.4992
47.5675
28.388
16.7037
16.6413
27.274
43.5938
59.3247
69.6094
72.5842
69.1884
62.1813
54.8649
49.9418
48.9978
51.8145
56.188
58.3939
55.3814
47.104
37.5235
33.2732
39.6513
57.0207
79.3528
96.9099
101.944
93.3901
77.8303
65.3944
63.4486
72.1551
84.6261
91.5517
87.0978
72.295
53.7708
39.2741
33.9166
38.1232
49.4197
65.3752
85.1935
108.925
135.405
160.439
176.961
177.598
158.152
120.108
71.0716
22.6303
-13.1612
-27.6932
-18.6701
9.30982
46.4376
81.2032
104.356
111.836
105.335
90.8777
75.6592
65.2998
62.166
65.335
71.6759
77.4512
79.4737
75.9866
67.0652
54.6351
41.8564
32.4356
29.245
32.696
40.1717
46.8051
47.8101
41.041
28.763
17.1197
13.1016
20.5408
37.6876
57.6389
71.7308
73.8438
63.5287
45.6935
-1e-006
-7e-006
-2.5e-005
-4.3e-005
-5.3e-005
-6.2e-005
-8e-005
-0.000118
-0.00017
-0.000218
-0.000234
-0.00022
-0.000216
-0.000281
-0.000443
-0.000659
-0.000811
-0.000797
-0.000616
-0.000421
-0.000422
-0.00076
-0.001448
-0.002441
-0.003905
-0.004307
0.016898
0.050415
0.036006
-0.028848
-0.075028
-0.078034
-0.037349
-0.028333
-0.107939
-0.306166
-0.510349
-0.534105
-0.295764
0.058907
0.203319
-0.202618
-1.07317
-1.95241
-2.11268
-1.28179
0.212746
1.71334
2.84035
4.34354
8.10383
16.1121
28.9272
44.3532
57.5806
62.8929
56.5378
39.2027
16.4261
-3.27732
-11.9422
-5.86604
12.6932
36.351
55.9435
64.4223
59.789
45.6436
29.3122
18.4499
17.5876
26.1904
39.039
48.6451
48.772
37.6055
18.9786
1.14098
-6.45328
3.07351
31.0538
71.9432
114.855
146.839
157.341
142.037
104.914
57.5653
15.5445
-7.21985
-3.62258
23.7265
63.7372
101.547
125.144
129.941
119.908
104.473
92.7996
89.2397
91.9923
95.6359
95.6153
91.1504
85.2829
81.8362
82.17
84.0543
83.2418
76.9253
66.2399
55.8232
50.9225
53.8311
62.4391
71.4728
75.66
72.4662
62.9547
50.6284
39.3698
31.9523
29.7917
33.2881
41.8755
53.7269
65.4097
72.4121
71.2706
61.7444
47.7107
35.507
30.7631
35.212
45.7431
56.4369
62.1959
61.7105
57.7487
54.6767
54.9268
57.1401
57.0458
50.7618
38.036
23.1936
12.8811
12.1145
20.8553
33.6795
42.6459
41.8673
31.0083
15.5248
3.61017
1.57516
10.4282
25.5429
39.1949
44.8781
40.5335
29.2539
17.1128
9.694
9.29278
14.2484
20.6066
24.6279
24.8892
22.6182
20.3615
20.2751
22.765
26.4411
29.1285
29.0929
25.8792
20.3106
14.2622
10.0758
9.76998
14.3739
23.3373
34.4625
44.6362
51.2317
53.4068
52.5076
51.1266
51.3009
53.01
54.319
52.631
46.6556
37.2071
26.6441
17.3202
10.2835
5.13146
1.29159
-0.849715
-0.147292
4.0931
10.5821
16.0448
16.9693
12.5607
6.74964
7.09039
20.9823
50.6115
89.72
124.615
139.768
125.479
83.702
28.6017
-19.2236
-41.893
-32.4011
2.41925
45.9553
80.2255
94.2413
87.9044
69.9912
52.1559
42.9042
44.5433
54.1988
66.9758
78.7771
87.1589
90.6746
88.178
79.0757
64.4603
47.9433
34.9359
30.1891
35.186
47.107
59.8382
67.0069
65.0645
54.8928
41.1187
29.7118
24.9176
27.562
35.0357
42.7001
46.6227
45.3473
40.6898
36.3715
35.7954
40.0133
46.9218
52.6772
54.0969
50.6254
44.7009
40.1577
39.6001
42.8178
47.0994
49.2088
47.6843
43.8549
40.914
41.418
45.274
49.6011
50.4447
45.3517
35.0761
23.331
14.7199
12.2979
16.2432
23.9824
31.7835
36.4225
36.336
31.7708
24.4391
16.9629
12.1342
12.1511
17.515
26.4863
35.534
40.7897
40.0111
33.9098
25.6641
19.1099
16.6405
18.093
21.3381
23.9687
24.8354
24.2181
22.973
21.5225
19.6663
17.1126
14.3986
12.9924
14.3992
18.7229
24.2336
28.3914
29.4704
27.9905
26.4166
27.4209
31.7437
37.3195
40.499
38.3697
30.9056
21.1796
13.6953
11.924
16.4311
24.8457
33.3738
38.5889
38.7796
34.1037
26.3232
18.1108
12.4645
11.8288
16.9104
26.0058
35.2517
40.4571
39.8018
35.8385
35.4283
46.5062
73.3791
112.858
153.796
180.761
180.848
149.924
95.3908
34.0412
-14.6351
-36.1456
-26.4008
7.50426
50.937
87.8995
107.129
105.542
88.3523
65.7828
48.5838
43.8668
52.3657
68.6544
83.7427
89.2001
81.3866
63.3232
43.3251
30.9864
32.1751
45.927
64.8613
78.934
80.5634
68.5297
48.5205
30.1363
22.3079
29.2459
48.5921
72.4959
90.943
96.094
85.5462
63.7309
40.149
25.2273
25.1955
38.942
58.5375
73.6135
77.1345
69.7995
59.7114
57.231
68.0716
88.9288
108.744
115.163
102.067
74.0179
44.2105
26.8269
28.5622
44.7624
62.4884
68.883
59.5706
41.2731
27.3762
29.1686
48.3898
75.999
97.7548
102.862
90.1525
67.9231
48.0241
38.6257
40.0438
46.4125
51.1697
51.8973
51.6829
55.9796
67.4332
82.6643
93.46
91.6594
74.5804
47.3623
20.8313
6.14353
9.02349
26.9091
50.5343
69.159
75.8794
70.8451
60.1987
51.5933
49.1771
51.4389
53.0947
49.5212
40.6881
31.9561
30.9064
42.198
64.0251
88.6743
106.632
111.571
103.327
87.222
70.4744
58.2664
52.1086
50.6902
51.9179
54.6788
59.0235
64.9421
71.2125
75.4358
74.9195
68.1955
56.1411
41.812
29.5628
23.7539
27.4262
41.4432
64.0238
90.9779
116.72
135.494
142.675
135.807
115.303
84.4361
49.0001
16.3095
-6.23848
-13.484
-4.04614
19.0175
49.0402
77.915
98.7037
107.102
102.251
86.3957
64.471
43.5202
31.3173
33.8976
52.5406
81.529
109.425
123.51
116.292
89.9963
56.287
30.4898
23.568
36.5336
60.871
84.2245
97.6877
99.8956
95.7192
91.0748
88.3702
85.7098
79.8282
70.0831
60.3552
56.704
62.6818
76.1762
90.0683
96.9857
94.3627
86.203
80.6086
84.2122
97.5078
114.299
125.331
124.076
110.785
92.3042
78.3435
76.092
86.6586
104.912
122.214
130.806
127.206
113.281
94.7222
77.8893
66.8762
62.1551
61.3009
60.9345
59.0213
55.7721
53.3965
54.2274
59.0139
66.1573
72.5146
74.782
71.0474
61.7087
49.464
38.0104
30.8418
29.9349
35.014
43.637
52.4173
58.9217
62.8021
65.403
68.4395
72.2012
74.7612
73.0941
65.3427
52.793
40.296
34.0043
38.2837
53.1942
74.0466
93.4546
104.311
102.925
90.5873
73.0791
58.4697
53.9434
62.6349
82.0379
104.287
119.12
118.052
98.764
66.7286
33.3743
11.3136
8.71958
25.8055
54.9101
84.3917
104.261
110.761
107.841
104.723
110.94
131.019
161.311
190.665
204.904
193.334
154.048
95.7006
34.5056
-12.2873
-33.2291
-26.7754
-0.887419
31.1821
56.5141
67.1006
61.7403
45.5009
26.8282
14.037
12.0564
20.7762
35.4156
49.1045
56.7089
57.6404
56.1429
58.3005
67.7299
82.2333
94.3195
95.393
81.1596
55.0886
27.2004
8.6542
5.56523
15.6578
30.3874
40.5487
42.0554
37.8823
34.8525
38.0483
46.6871
54.7002
55.6478
47.9637
36.7671
30.697
35.7562
50.843
68.1438
78.395
77.2754
68.4479
61.0111
63.029
75.8022
92.9773
104.872
105.074
94.5776
80.9156
72.9765
75.0854
84.1323
92.2798
92.2059
81.7945
65.4678
51.283
46.3082
52.5693
66.3092
80.2222
87.0755
82.875
68.6116
49.3516
32.353
24.3123
28.8821
45.2859
68.2841
90.0214
103.143
104.066
94.4669
80.0594
67.4449
60.6487
59.1787
59.31
57.5477
53.5972
50.9674
54.369
65.6655
81.6974
95.7456
101.989
99.444
92.5664
87.9378
89.7124
97.2912
106.542
113.353
116.702
118.09
118.541
116.248
107.993
93.0104
76.2548
66.9809
73.2067
95.0803
122.789
141.521
140.443
119.816
90.7001
67.5793
59.691
67.0774
83.8224
105.173
131.716
166.964
210.123
250.816
271.411
256.681
204.613
130.051
58.0433
10.5027
-5.13513
2.35228
16.2174
23.7366
23.6622
24.5152
35.6782
58.4976
83.9239
98.0322
91.3004
65.2494
31.9234
6.78847
-0.027731
11.1995
31.1123
47.5753
52.5726
45.4753
31.9714
19.7101
13.6099
13.6449
16.3723
18.0597
17.2647
15.4779
15.5303
19.0336
25.0711
30.946
34.3082
35.0464
35.1781
36.9704
40.8742
45.1397
47.3713
46.9085
46.0912
48.9135
57.9508
71.7755
85.0537
91.643
88.4558
77.5608
65.1941
58.2427
60.4058
70.7492
84.5922
96.3271
101.789
99.1647
88.7262
72.3118
53.2648
36.3119
26.4918
26.7903
36.0438
48.4535
56.1189
53.7004
42.224
29.1871
24.4075
33.8699
55.3108
78.7917
91.9553
86.8309
64.4439
34.3873
9.82892
1.19187
11.6073
36.1937
64.9274
87.4622
97.068
92.9727
79.8062
65.3496
57.125
59.4479
71.6746
88.6024
102.889
108.401
102.953
88.8258
71.2994
56.1714
47.4469
46.5277
52.7701
64.3658
78.9381
93.9105
106.439
114.165
116.116
113.315
108.395
104.259
102.535
102.723
102.731
100.187
94.126
85.6874
77.4737
72.578
73.5406
82.0681
98.9322
123.813
154.338
185.153
208.099
214.106
197.142
157.73
104.085
49.7454
8.24731
-12.5847
-13.3541
-1.51088
13.1508
23.6772
28.2584
29.1803
29.5548
30.6557
31.4845
30.3978
27.0782
23.1049
20.728
20.8846
22.3609
22.7172
20.2453
15.3814
10.5606
8.40788
9.99522
14.1914
18.3914
20.2348
18.9578
15.5416
11.9921
10.126
10.7413
13.4392
17.0607
20.2109
21.9397
22.2106
21.8835
22.4234
24.9923
29.6536
35.1057
39.3147
40.908
40.3588
39.8871
41.8258
46.7932
52.9223
56.9305
56.5757
52.6518
48.7102
48.7932
54.3357
62.6859
68.399
66.5084
55.8162
40.0308
25.8787
19.4928
23.1447
34.1826
46.5904
54.1484
53.595
45.9216
35.373
26.9785
23.8812
26.0589
30.7521
34.4088
35.0101
33.0138
30.6824
30.2295
32.058
34.5471
35.4154
33.763
31.2118
31.1148
36.2256
46.6642
59.4215
69.9295
74.656
73.0797
67.8356
63.2163
62.8775
68.2553
78.1292
89.2855
97.8483
100.694
96.7003
87.3825
76.4743
68.3189
65.7887
68.8822
74.6657
79.1194
79.5327
76.0345
71.1291
67.9698
68.5292
73.1769
81.7447
94.8082
113.482
137.478
162.783
181.141
182.69
160.977
117.496
62.6198
11.9042
-20.7061
-28.9516
-16.6404
5.09603
23.7171
30.9963
-0
-4e-006
-1.5e-005
-3.7e-005
-6.5e-005
-8.2e-005
-7.4e-005
-4.3e-005
-1.9e-005
-5.2e-005
-0.000164
-0.000312
-0.000403
-0.000349
-0.000168
3e-006
-3.7e-005
-0.000389
-0.000912
-0.001242
-0.001027
-0.000247
0.000587
0.000521
-0.001462
-0.004964
0.001092
0.024749
0.054887
0.062251
-0.013642
-0.156445
-0.290803
-0.28368
-0.057592
0.261067
0.382058
0.06004
-0.659242
-1.30592
-1.31045
-0.389293
0.994116
1.73083
0.777695
-1.80678
-4.4756
-4.77079
-0.723293
7.74763
18.38
27.458
31.6999
29.961
23.839
16.6644
11.6419
10.2438
11.7986
14.2687
15.7623
15.6373
14.717
14.5528
16.1836
19.3354
22.5319
24.0161
22.9029
19.8955
16.9475
16.1779
18.6266
23.5813
28.9599
32.5684
33.4553
32.5705
32.2311
34.7325
40.8313
49.223
57.0595
61.4098
60.8056
55.9577
49.5168
44.887
44.6049
49.1962
56.7708
63.974
67.5643
66.0473
60.5116
54.094
50.3018
51.0203
55.5181
60.9086
63.9208
62.7037
57.7808
51.8542
48.827
52.434
65.1672
87.2796
115.978
145.004
165.59
168.995
150.076
110.527
59.4314
10.3833
-23.7813
-36.1475
-28.1223
-7.87504
14.0227
29.4176
35.2721
33.3388
27.5925
21.5085
16.627
12.9789
10.3015
9.13109
10.5993
15.432
22.8531
30.3534
34.6653
33.3953
26.406
16.1441
6.56764
1.351
2.05601
7.32819
13.7383
17.5837
16.9339
12.5793
7.5314
5.14203
7.25273
12.9797
19.3413
23.0312
22.3554
18.3141
14.0863
13.0857
17.0335
24.8858
33.3644
38.8077
39.2887
35.7439
31.3541
29.8616
33.5617
42.1561
52.9453
62.2425
66.9987
66.022
60.189
51.8352
43.4514
36.5409
31.2
26.4947
21.4612
16.199
12.0592
10.9719
14.0714
20.4948
27.449
31.4386
30.2522
24.3011
16.5211
10.8529
10.1441
14.8626
23.0894
31.7454
38.324
41.7662
42.2232
40.1999
35.807
28.956
20.2677
11.7634
6.64623
7.89998
16.4253
30.0046
44.0356
53.7188
56.5278
53.4102
48.0528
44.6569
45.6173
50.4953
56.757
61.6394
63.7401
63.4066
61.9152
60.3129
58.5851
56.0738
52.2607
47.5567
43.324
41.1611
42.1021
46.0109
51.4808
56.4071
58.9677
58.758
57.8699
60.7186
72.4336
95.69
127.717
159.265
177.238
170.325
135.008
78.5871
16.9752
-31.935
-55.9502
-53.3271
-32.2773
-5.85706
14.537
23.7192
23.166
18.0829
13.4286
11.2834
10.6905
9.54181
6.70395
3.01146
0.670578
1.57423
5.95299
12.0555
17.102
18.9137
17.1037
13.2152
9.80232
8.95452
11.3451
16.133
21.6583
26.4279
29.6402
31.036
30.5465
28.2605
24.5992
20.7575
18.5886
19.8758
25.2274
33.389
41.7524
47.6526
49.8836
49.2752
48.0845
48.5367
51.6118
56.7391
62.3699
66.9339
69.4858
69.8663
68.3308
65.4138
61.8991
58.7937
57.101
57.1045
58.0267
58.1352
55.6679
49.9877
42.2102
34.9874
31.0883
31.8371
36.3472
41.881
45.2678
44.5286
39.7328
32.7857
26.3087
22.2975
21.355
22.847
25.6192
28.7234
31.6887
34.2475
35.9204
35.8493
33.1591
27.9514
21.8198
17.5984
18.1313
24.5621
35.258
46.1467
52.6734
52.2582
45.7787
37.3113
31.9467
32.9603
40.1096
50.0354
58.4778
62.6948
62.728
61.0391
60.4323
62.2807
65.9091
69.3876
71.1773
71.0901
70.1577
69.5704
69.6298
69.4197
67.6024
63.6983
58.6721
54.5974
53.3735
55.3945
59.0997
62.0049
62.7497
62.8375
66.8801
80.4543
106.363
141.285
174.982
193.426
184.936
146.424
86.2033
21.5097
-28.6727
-51.7914
-46.872
-23.841
2.4032
19.5373
22.9607
16.1718
6.81155
1.5475
2.71529
8.36426
14.7524
19.0317
20.5178
20.1354
19.1554
18.2372
17.4613
17.0029
17.2866
18.6255
20.6858
22.4105
22.7595
21.8427
21.187
22.9319
28.217
35.6994
41.7324
42.2532
35.2775
22.7038
9.81737
2.75154
5.20981
16.3723
31.2626
43.418
48.3089
45.5767
38.8433
33.2838
32.632
37.2019
44.3511
50.6106
53.9833
55.0898
56.217
59.2324
63.8251
67.458
67.0994
61.4402
52.0076
42.4693
36.2269
34.3129
35.0333
35.382
33.3958
29.4934
26.1006
25.6566
28.5785
32.7089
34.6445
32.0281
25.1424
16.7778
10.5526
8.86121
11.6317
16.8368
21.8175
24.769
25.3527
24.2483
22.428
20.6443
19.3506
19.0746
20.2847
23.107
26.889
30.2125
31.452
29.735
25.5916
20.8584
17.6509
17.2128
19.2784
22.2805
24.4853
25.3341
25.7763
27.7929
32.8388
40.6914
49.3056
56.0095
59.1232
58.9583
57.4979
56.9929
58.118
59.2471
57.4389
50.5063
38.8443
25.8129
16.2881
14.0864
19.7657
30.0808
39.7137
44.3926
43.8027
42.4584
47.7692
65.9807
97.6793
135.484
165.556
173.052
149.191
96.4215
28.7522
-33.5011
-72.1711
-78.7695
-57.4858
-22.0476
11.3563
31.2666
34.7668
26.659
15.2497
7.61409
6.53539
10.6186
16.1843
19.6944
19.3803
15.8086
11.1803
8.19768
8.68457
12.6853
18.3604
23.0159
24.6369
23.1471
20.5852
19.8957
22.8997
28.7819
34.5206
36.842
34.3437
28.4844
22.5426
19.4954
20.092
22.5424
24.1241
23.3165
21.0179
19.9541
22.8043
30.4967
41.6209
53.242
62.3693
67.249
67.6923
64.7504
60.0879
55.4283
52.2249
51.1682
51.8783
52.9334
52.5019
49.2953
43.2995
35.9025
29.1772
24.844
23.425
24.3274
26.4039
28.544
29.8831
29.918
28.452
25.6879
22.3801
19.5102
17.7482
16.9673
16.2978
14.823
12.6599
11.1777
12.1434
16.1006
21.4719
25.2814
25.0802
20.8294
15.2564
12.2998
14.4117
20.7249
27.547
30.7925
28.746
23.0372
17.4044
15.1124
16.9723
21.309
25.6292
28.6451
30.9854
34.16
38.7224
43.2513
45.1317
42.5766
36.4165
30.1144
27.9231
32.2868
42.1804
53.439
60.9976
61.4658
54.6913
43.4301
31.6888
22.8677
18.5713
18.6598
21.8814
26.5699
31.0747
33.895
34.1968
32.801
32.8739
39.3869
56.8481
85.9243
120.855
149.782
158.886
138.883
90.5844
26.0668
-35.6503
-76.6028
-87.5655
-71.3009
-39.9979
-8.61379
12.1829
19.4971
17.3172
12.3179
9.56965
10.4766
13.464
16.209
17.4878
17.638
17.6925
18.2443
18.9873
19.1559
18.3231
16.7565
15.2516
14.6022
15.0713
16.3219
17.8475
19.4459
21.465
24.5886
29.1815
34.7556
39.8652
42.794
42.6067
39.8423
36.4101
34.4178
34.6603
36.1823
37.0845
36.2897
34.7551
35.1024
39.8267
49.0314
59.8561
67.964
70.4756
67.9441
64.0294
62.9198
66.2314
71.8214
75.2594
73.0189
65.0403
54.789
46.8514
43.7594
44.3476
44.7305
41.2482
33.1917
23.4185
16.5987
16.2071
22.2109
30.9682
37.3284
37.6017
31.6645
23.06
16.9076
16.8384
22.8236
31.1221
36.5387
35.4546
28.1162
18.575
12.3338
13.1312
20.9543
32.1872
41.7992
46.0997
44.4322
38.8409
32.6917
28.8326
28.417
30.8389
34.3625
37.1375
37.7678
35.8495
32.0523
27.9779
25.564
26.2487
30.3002
36.7705
44.0214
50.5037
55.3672
58.3947
59.6665
59.3747
57.6975
54.9587
51.602
47.9691
44.0092
39.3612
33.8543
28.0671
23.2785
20.8843
21.4791
24.6588
29.9665
38.2922
52.1008
73.8365
102.849
132.933
152.941
151.044
121.033
66.9461
2.92337
-52.1858
-82.8527
-83.3618
-59.3078
-23.7984
9.12833
30.0556
36.6688
32.5732
24.2594
18.0259
17.9763
25.1592
37.3817
49.9997
57.6741
56.912
48.2083
36.2667
27.5904
26.6935
33.1802
41.8263
45.907
41.6217
30.6631
19.3241
14.3536
18.736
29.9179
41.6248
47.9744
46.9845
41.3766
36.3469
36.0616
41.352
49.5213
56.5035
59.3674
57.742
53.4379
49.1491
46.9697
47.7101
51.1148
56.4375
62.8005
69.1274
74.2377
77.0795
77.2573
75.2964
72.4371
69.8951
68.0565
66.1384
62.9276
57.7013
51.0463
44.5736
39.8961
37.6161
37.1109
37.1932
37.0927
36.815
36.6176
36.1057
34.0307
29.248
22.2138
15.6435
13.2801
17.4473
26.9132
36.916
41.7607
38.5486
29.2366
19.5993
15.5044
19.1297
27.7668
36.0099
39.6654
38.5264
36.0141
36.1836
40.3922
46.0875
48.6813
45.1797
36.5942
27.509
23.0943
25.7749
33.7721
42.3314
46.9168
45.9782
41.4345
36.9669
35.5049
37.6551
41.8773
46.0948
49.3824
52.2703
55.9461
60.5316
64.4403
65.0264
60.29
50.5115
38.6212
28.833
24.4418
25.8452
30.3304
33.8033
33.6235
31.0411
31.3565
41.6457
66.3817
103.447
142.758
169.205
168.848
135.947
76.8044
8.31269
-48.8724
-78.9906
-77.6767
-52.8464
-19.7787
6.63033
18.4967
16.8796
8.90804
2.54282
2.08813
6.89297
13.1276
17.0613
17.4368
15.6911
14.3989
15.4527
18.8329
22.7685
25.0309
24.3045
20.7529
15.9271
11.9207
10.2276
11.2496
14.1255
17.5102
20.4065
22.6096
24.5175
26.5672
28.6646
30.1536
30.3334
29.2136
27.7905
27.5813
29.7818
34.4165
40.351
45.9363
49.9319
51.8841
52.1501
51.3259
50.0316
48.8414
48.504
49.8575
53.4876
59.1457
65.4755
70.2579
71.439
68.1567
61.1627
52.3662
43.8503
36.8747
31.4972
26.9797
22.7089
18.896
16.5677
16.7578
19.7193
24.4466
28.8599
30.9216
29.7026
25.6753
20.4069
15.8071
13.2145
12.9945
14.4518
16.2544
16.761
14.7327
9.96272
3.75766
-1.07765
-1.32441
4.8894
16.6832
30.2619
40.7122
44.5176
41.4981
34.7448
28.597
25.9142
26.5207
27.8432
27.125
23.6885
19.3613
-0
-5e-006
-1.1e-005
-2.5e-005
-4.6e-005
-6.6e-005
-7.2e-005
-6.6e-005
-6.2e-005
-8.2e-005
-0.000139
-0.000226
-0.000306
-0.000334
-0.000296
-0.000235
-0.000238
-0.000377
-0.000636
-0.000881
-0.000937
-0.000714
-0.00037
-0.000371
-0.001403
-0.002603
0.008539
0.008119
0.028156
0.041101
0.013466
-0.081798
-0.165694
-0.192978
-0.121611
0.005378
0.090176
0.000926
-0.302669
-0.677307
-0.854679
-0.628303
-0.071059
0.402834
0.267059
-0.693179
-2.05658
-2.70438
-1.25736
3.15798
10.2842
18.592
25.874
30.2271
30.8789
28.4713
24.6353
21.0863
18.8779
18.1063
18.269
18.8264
19.6341
20.9331
23.0383
25.8518
28.6551
30.4236
30.3841
28.639
26.3277
25.2513
26.9592
31.8073
38.656
45.3745
49.916
51.3435
50.314
48.4883
47.6147
48.6079
51.302
54.7088
57.7748
59.879
60.9292
61.112
60.5337
59.1985
57.0639
54.3782
51.652
49.3745
47.638
45.871
43.069
38.4819
32.3455
26.1082
21.8407
20.9887
23.2576
26.3593
27.126
23.5346
16.3905
9.19559
6.18906
9.38945
16.9027
23.767
25.0913
19.3756
9.99781
3.19016
3.89551
12.4232
24.0785
32.1736
32.2811
25.0687
15.6311
10.0451
11.6134
19.2013
28.5289
35.1312
36.9633
34.9195
31.4626
28.5184
26.2935
23.7759
20.0963
15.7152
12.3874
12.2629
16.4787
24.4239
33.8801
42.3121
48.0073
50.7247
51.4183
51.148
50.2277
47.9599
43.2375
35.7698
26.6465
18.1865
12.869
12.0139
15.1096
20.122
24.599
26.7485
26.114
23.8907
22.9817
27.5901
41.9393
67.7723
101.811
134.593
152.454
143.107
102.381
38.32
-30.4953
-82.366
-102.247
-88.5576
-53.0255
-13.9413
13.396
23.2613
20.0771
13.3927
11.2206
15.8009
23.9918
30.895
33.4454
31.6761
27.3479
22.0592
16.2741
10.1894
4.99997
3.07563
6.44145
14.784
24.7851
31.6582
32.1093
26.5459
18.932
14.4213
16.0452
23.0202
31.4901
37.0861
37.4683
33.3128
27.4092
22.8994
21.6478
23.9007
28.7931
35.0554
41.5223
47.234
51.4773
53.9672
54.9343
55.0329
54.9887
55.2355
55.7387
56.2225
56.6013
56.9724
57.4315
57.5424
56.36
52.9274
47.0548
39.7409
32.8389
27.9251
25.4144
24.3528
23.1642
20.7767
17.292
13.8988
11.9115
11.9465
13.694
16.2843
18.8608
20.9381
22.2606
22.5206
21.3405
18.5097
14.4464
10.2997
7.5525
7.317
9.72978
13.8956
18.3171
21.7062
23.5948
24.635
26.0362
28.7624
32.7604
36.6152
38.1469
35.5423
28.5665
19.1542
10.8204
7.08431
9.78501
18.2286
29.4795
39.8482
46.7119
49.4565
49.3928
48.669
49.0899
51.3506
54.9912
58.9072
61.8884
62.7784
60.6484
54.9907
46.168
35.6046
25.5764
18.5328
16.1415
18.5329
24.1535
30.3851
34.6448
35.6089
34.1756
33.6006
38.6053
53.3085
78.649
110.362
138.913
152.131
140.094
100.3
40.2456
-24.095
-74.0117
-95.5066
-85.137
-51.2081
-9.5851
23.6707
39.2551
37.6919
27.2189
18.1104
16.7118
22.5353
29.6637
31.3584
24.5857
12.0068
0.261123
-4.10845
1.42522
14.1313
27.8833
36.6676
37.7074
32.5038
25.3426
20.4733
19.8242
22.4438
25.7667
27.4651
26.8011
24.8921
23.7666
24.9623
28.6414
33.5229
37.5574
39.0316
37.416
33.6341
29.5809
27.2382
27.844
31.4268
37.1555
44.0156
51.3545
58.9377
66.3819
72.6521
76.1287
75.3128
69.7675
60.6305
50.1431
40.6047
33.3139
28.292
24.7636
22.1335
20.4786
20.3834
22.2957
25.8976
29.9383
32.6716
32.6117
29.2856
23.3718
16.4278
10.4359
7.00314
6.80391
9.40426
13.4644
17.4202
20.246
21.9208
23.3679
25.6537
29.1035
32.8904
35.4613
35.4844
32.921
29.2748
26.6628
26.621
29.0177
32.1257
33.679
32.3481
28.7633
25.1208
23.9572
26.489
31.8016
37.2969
40.2535
39.5752
36.6027
34.3654
35.6674
41.2478
48.9392
54.6229
54.4584
47.1968
35.1553
23.339
16.9464
18.5988
26.8853
36.8456
42.4277
39.4244
27.71
11.7221
-1.02304
-2.74953
11.5232
41.5022
80.8092
118.194
140.776
138.639
108.983
58.0623
-0.377969
-50.044
-78.2105
-80.4284
-61.4926
-32.3866
-4.88899
13.3884
20.9657
21.1468
18.6267
16.469
15.1421
13.6537
11.5957
10.077
11.0952
15.8481
23.3759
30.7154
34.5655
33.2322
27.675
20.8298
15.8686
14.4172
15.8837
18.1772
19.248
18.4702
16.828
16.1507
17.8113
21.8896
27.2184
32.0996
35.2306
36.1829
35.3087
33.4291
31.5826
30.9667
32.6522
37.0721
43.5698
50.258
54.6462
55.0503
51.7568
47.2381
44.9002
46.9964
53.0034
59.6184
62.607
59.4306
50.9209
40.9102
33.8581
31.9373
33.7897
35.54
33.4981
26.7457
17.8299
10.9956
9.3096
12.8205
18.6238
22.9691
23.689
21.1235
17.2477
13.9198
11.6109
9.65172
7.45187
5.50219
5.27673
8.06994
13.7337
20.5886
26.4576
30.0731
31.7669
32.7962
34.1386
35.7302
36.6991
36.4109
35.2675
34.4731
34.9438
36.3077
37.0441
35.5512
31.4628
26.315
22.728
22.8029
26.8975
33.54
40.3333
45.2586
47.4648
47.1624
44.9973
41.4441
36.8733
31.8009
27.1558
24.2637
24.2153
27.1836
32.0177
36.3793
37.7204
34.8875
29.477
26.2615
31.6696
50.3137
81.1443
115.599
139.53
139.145
108.158
52.3483
-11.5376
-62.7826
-86.0134
-77.895
-47.5982
-11.1977
16.6807
29.1575
28.4205
22.1004
17.7648
18.9553
24.5096
30.6893
34.1105
33.5266
29.8068
24.7824
20.0709
16.678
15.0383
15.2043
16.9089
19.5406
22.2539
24.3323
25.5926
26.4949
27.9317
30.6127
34.7757
40.0336
45.3702
49.5037
51.0606
48.9464
42.8694
33.778
23.876
16.1848
13.4582
17.1654
26.8783
40.3754
54.3838
65.7254
72.3153
73.5439
70.1611
63.831
56.745
51.1108
48.7546
50.5561
55.9251
62.6174
67.3635
67.2844
61.5211
52.0163
42.685
37.2631
36.9204
39.2748
39.6044
33.8326
21.4252
6.34979
-4.85882
-6.79524
1.52076
15.9081
29.3284
35.8527
33.9102
26.6936
19.6577
16.8584
18.6678
21.9563
22.6295
18.5548
10.9514
3.61795
0.459327
3.11887
10.36
19.1654
26.6846
31.6371
34.3544
35.817
36.4845
36.1437
34.3168
31.1625
27.7211
25.3574
24.8364
25.8713
27.6708
29.7619
32.5144
36.6688
42.1733
47.341
49.3867
46.062
37.5459
27.0622
19.4216
18.2737
23.7811
32.3946
38.7529
38.7683
32.0763
22.5237
16.5712
20.5502
37.9399
67.5882
103.069
133.825
148.021
136.813
98.5832
41.0723
-20.0324
-66.625
-85.5438
-74.2496
-41.6947
-3.80769
24.0947
33.9433
27.3224
12.8328
0.41929
-3.73001
0.845686
10.321
19.8062
26.1399
28.5945
28.0719
25.7255
22.3487
18.5279
15.1218
13.2838
13.9173
16.9786
21.3824
25.6015
28.6309
30.4684
31.6199
32.2933
31.7303
28.6334
22.4907
14.6684
8.51965
7.93898
15.0204
28.3749
43.2867
53.9272
56.4088
50.9745
42.0608
35.8699
37.0019
45.9249
58.7372
69.2014
72.0516
65.7353
53.1582
40.0647
32.1414
32.2856
39.3442
48.9404
55.8276
56.4296
50.4236
40.5534
30.9473
25.0353
23.9761
26.343
29.2217
29.7633
26.6141
20.4421
13.4282
8.20512
6.5874
8.76447
13.2103
17.4279
19.2349
18.0162
15.2042
13.5006
15.131
20.2778
26.5669
30.3425
28.9764
22.7081
14.7832
9.68818
10.3407
16.3713
24.5254
30.857
33.1596
32.0842
30.0586
29.2783
30.166
31.5852
32.3976
32.8375
34.5934
39.189
46.1423
52.3764
53.7821
47.812
35.4026
20.9478
10.0251
6.4051
10.1056
17.7273
24.6011
27.8784
28.6387
31.6434
42.7855
65.0763
95.3794
123.838
136.972
123.87
82.2001
21.11
-41.3515
-85.4967
-98.5593
-80.0871
-41.5746
-0.447671
28.1923
37.7834
31.468
18.4459
8.15336
5.60472
10.1651
17.5685
23.3462
25.5356
25.2859
25.4437
28.2643
33.8677
39.975
43.3037
41.4667
34.503
25.0874
17.285
14.5369
17.9759
25.9446
34.994
41.5531
43.5915
41.1937
36.1697
30.932
27.3948
26.5442
28.41
32.4502
37.9353
44.1451
50.3648
55.8843
60.0093
62.1518
62.1327
60.3536
57.9669
56.5649
57.6333
61.828
68.3943
75.1738
79.4782
79.21
73.9453
65.2538
55.9946
48.805
44.6984
42.6396
40.3857
36.0074
29.2537
21.8264
16.4838
15.3471
18.6939
24.8997
31.4098
36.1473
38.2589
37.9718
35.9216
32.4826
27.8999
22.8581
18.8209
17.6272
20.4612
26.5711
33.1396
36.494
34.2441
26.9984
18.3169
12.9273
13.9641
21.1
30.634
37.6545
38.9618
34.8767
28.8394
24.9876
25.5739
29.8203
34.9001
38.0974
38.8102
38.7372
40.2126
44.0676
48.7386
51.0629
48.4479
40.8612
31.0128
22.8931
19.5557
21.5617
27.08
33.0554
36.8005
37.0987
34.6759
32.0661
33.0473
41.4413
59.1444
84.0795
109.18
124.027
118.988
90.1261
42.3864
-11.2644
-54.7998
-75.7541
-70.2515
-43.9891
-9.11305
21.3195
38.4593
40.2424
30.6749
17.0234
6.3808
3.00205
7.18965
15.893
24.5633
29.3776
28.8965
24.4976
19.2011
15.9024
15.8113
17.9929
20.3321
21.0163
19.6577
17.4054
16.0596
16.8351
19.6349
23.1495
25.6056
25.8982
24.1871
21.7818
20.3739
21.0256
23.4177
26.0283
27.1477
26.2356
24.6744
25.1691
30.0628
39.5935
51.1903
60.519
63.8869
60.3673
52.3411
44.077
39.1303
38.4831
40.4298
42.3111
42.6598
42.172
42.8247
45.7045
49.3151
49.9651
39.7024
47.6907
48.2527
43.5671
38.4239
37.1151
40.7187
46.4397
49.6107
46.9789
39.0315
29.8525
24.4437
25.5031
32.2484
41.3197
49.1722
53.9554
55.5975
54.48
50.4883
43.3756
34.3932
27.2809
27.0668
37.0307
55.7827
76.6951
91.0913
93.0858
83.1698
68.072
56.7872
55.4787
64.1904
77.5448
88.2269
91.1582
85.672
74.869
63.2344
54.3482
49.7852
49.2367
51.1398
53.3735
53.9818
52.0717
48.5123
45.9464
47.7075
55.3671
66.8728
76.6216
78.1671
68.1818
49.1701
28.6515
15.2372
14.0238
23.6341
37.4217
47.5771
49.5261
44.2795
37.1405
34.1825
38.7257
50.0163
64.4907
78.0246
87.5621
91.3545
88.4027
78.2798
61.7787
42.0377
24.7139
16.2497
20.5778
36.6012
58.2169
77.4022
88.5492
91.0553
88.6191
85.7677
84.6966
84.3074
82.4919
79.0544
76.5171
77.8965
83.1879
87.6844
84.45
69.7258
47.0424
27.0334
21.7118
37.119
68.6511
102.892
124.568
124.613
104.57
74.9871
49.0722
35.9105
37.0764
47.3402
58.9271
66.1912
68.0938
68.0826
71.7096
83.1083
102.271
124.143
140.611
144.095
131.382
105.53
74.9035
49.6182
37.281
40.2217
55.4849
76.8389
97.5919
112.525
118.453
114.448
101.977
84.9665
69.4019
62.0368
68.4581
91.1478
128.462
174.736
220.693
254.572
264.348
241.568
185.882
107.893
27.5928
-31.7781
-52.9082
-32.0689
19.01
78.8587
126.067
148.111
144.555
124.133
98.1948
75.258
59.2631
51.0872
51.2149
60.464
78.3302
101.246
122.461
134.508
133.04
118.958
97.8805
76.7768
60.7121
51.3117
47.7406
48.5577
53.3113
61.9033
72.8825
82.5044
85.893
79.7388
65.0768
48.1287
37.6313
40.0686
55.5474
76.89
92.9866
95.1449
82.6835
64.0585
52.4514
57.9938
81.3142
112.615
136.982
143.08
129.476
105.197
84.1325
76.9467
85.5166
102.986
118.851
125.033
119.286
104.696
86.8724
70.9993
60.6673
58.0662
64.2307
78.1812
95.8601
110.967
117.744
114.665
106.302
100.888
105.058
118.598
133.478
138.301
125.4
96.4309
62.1694
36.7897
30.028
42.1464
64.1498
82.8318
87.8272
76.7798
55.6998
36.1925
30.0657
43.7476
75.2609
114.797
149.155
167.664
167.094
152.482
133.279
117.21
105.346
92.7061
73.6523
48.6877
27.2932
23.8658
48.3565
97.8176
155.666
199.338
211.953
191.641
151.923
113.149
91.3069
90.6136
103.497
117.396
122.632
116.914
104.489
92.041
84.8857
85.0451
91.9511
103.315
115.804
125.622
129.316
125.983
118.648
113.937
119.382
138.785
168.465
197.623
212.632
203.605
168.991
117.088
62.9589
22.4437
5.93317
14.8517
41.9767
74.8646
101.061
112.711
108.37
92.4518
72.4762
55.8434
47.157
46.9243
52.059
57.371
57.4602
49.7921
36.7778
26.1868
27.3075
46.008
79.6515
115.771
137.381
132.155
100.524
57.3739
24.4944
18.0273
38.3136
69.4198
89.445
85.0081
60.4024
34.5518
27.9718
48.938
87.4529
121.773
132.679
115.654
83.29
56.2942
49.7264
64.1335
86.5634
100.397
96.4396
78.4515
59.7521
54.147
66.7119
91.3366
114.866
125.373
118.318
97.8606
72.6336
50.2045
33.8444
23.5036
18.5784
19.759
28.4514
43.715
59.7702
68.1033
62.7904
46.1311
29.0981
25.8282
44.4709
80.4985
117.65
136.812
127.4
94.1821
54.2855
26.9814
23.012
39.9945
66.1873
89.3316
103.852
112.233
120.19
130.659
141.147
145.788
140.574
127.338
114.001
110.222
121.916
147.304
176.773
197.146
197.78
176.672
142.681
112.218
101.223
116.923
152.334
188.969
206.172
192.678
152.943
105.118
71.2353
65.4702
87.3308
123.249
154.824
168.394
160.313
136.206
106.879
82.9727
71.4849
74.4342
88.8692
107.76
121.982
123.947
111.407
89.5993
69.5235
62.5147
74.4818
102.722
137.658
168.018
186.038
189.716
180.802
161.512
133.178
97.2506
57.9367
22.7519
0.025827
-5.92197
2.03576
15.2102
24.1807
24.9018
20.8517
20.3593
30.312
50.7172
73.8766
89.0597
88.8364
73.4429
50.6776
31.4168
23.6812
29.2867
44.6036
63.4796
80.5319
92.7721
98.9525
98.4951
91.4733
79.5176
67.0506
60.5051
65.5268
83.2132
108.426
131.419
142.457
136.833
117.592
93.7845
75.6621
69.4557
74.7344
85.2969
93.342
93.958
87.6701
79.6719
76.3451
81.6599
95.0397
111.711
125.087
129.895
124.098
109.289
89.6946
70.5598
56.5199
50.4864
52.9632
61.8426
72.8194
80.786
81.8621
75.0915
63.1153
50.9884
43.6482
43.2374
48.1172
53.9708
56.7872
55.4008
52.1039
50.6544
53.4824
59.6081
65.3877
67.2216
64.2519
58.809
54.3565
52.4932
51.7251
48.8657
41.9261
32.1606
23.4576
19.5423
21.1584
25.7651
29.8335
31.7006
32.9662
36.6224
43.9465
52.4546
57.0059
53.3821
41.8114
27.6563
18.2532
18.3533
26.9933
38.1046
44.6158
42.9184
34.995
26.8205
24.7376
31.4213
44.7495
59.4864
70.5211
75.4868
75.5755
74.3734
75.8238
82.2078
93.4415
107.189
119.986
128.307
129.873
124.436
114.183
103.167
95.8581
95.0709
100.556
108.832
115.108
116.309
113.974
114.678
127.071
156.735
201.126
248.056
279.499
279.373
241.621
174.206
96.6087
31.4257
-5.61623
-11.7819
3.0862
23.1598
35.4391
36.0946
30.4571
27.7815
34.4908
50.0065
67.5427
78.7033
78.7436
68.8887
55.1066
43.7943
38.1811
37.3127
37.8846
37.2011
34.9439
33.0367
33.8492
38.1311
44.4087
49.981
52.9136
52.9934
51.3648
49.4095
47.5166
45.0804
41.382
36.9628
33.8592
34.6148
40.7961
51.3385
62.7641
70.4852
70.8618
62.8068
48.4609
32.4328
20.4105
17.3056
25.5451
43.7685
66.3122
84.5924
90.2642
79.3028
55.1923
28.4198
11.9877
14.8451
36.5656
66.7402
90.4268
96.2648
83.0093
60.0623
41.8478
39.2274
53.1948
74.3204
88.7728
86.8477
69.0635
45.9603
31.4152
34.1801
52.2934
74.3971
86.7449
81.8541
63.5582
44.5343
37.8309
48.0319
67.7077
82.184
79.1735
57.8187
30.2949
14.542
22.3344
50.7312
83.2117
100.014
91.2252
63.5003
36.3158
29.5102
50.7258
90.8288
130.34
152.089
151.389
137.32
125.006
124.758
135.884
148.61
152.088
142.2
123.972
107.311
100.157
104.048
114.787
126.374
135.113
140.812
144.91
147.572
147.195
142.084
132.777
122.602
115.602
113.469
114.176
113.971
111.274
109.433
115.999
137.887
175.111
217.71
248.488
250.967
218.041
156.699
86.0241
29.2746
3.69373
13.5771
49.5837
94.0355
129.437
145.621
142.935
130.323
119.641
119.19
129.583
144.131
153.009
149.152
132.543
110.719
94.5249
92.022
103.663
121.997
136.086
137.727
125.747
106.247
88.6257
79.7207
80.3163
85.982
91.1006
92.9515
93.0419
95.037
101.001
109.049
114.457
113.144
105.094
94.8473
88.4015
88.8233
93.8157
97.157
93.1574
81.1687
66.5869
30.6257
8.2717
8.89855
36.1026
85.7647
145.554
197.933
226.996
226.196
201.888
169.234
142.616
126.777
115.034
96.6749
67.7183
37.1212
23.3871
42.5528
96.0332
167.504
230.083
260.601
251.77
214.969
172.774
146.385
145.043
163.454
186.311
197.884
190.722
169.338
146.906
137.569
148.405
175.806
208.126
232.618
242.143
237.481
224.864
210.909
198.055
184.342
168.171
152.11
143.388
149.601
172.702
204.815
230.314
234.164
211.05
169.749
129.528
109.12
114.749
135.598
151.299
146.142
120.336
91.7981
83.9089
108.526
155.993
200.109
215.064
192.855
148.559
109.549
95.8791
107.033
124.881
129.532
115.554
96.1227
92.0546
114.922
157.544
199.555
223.105
225.941
221.014
224.561
241.255
259.78
261.931
237.74
194.79
153.796
134.348
142.011
165.56
186.253
191.84
183.696
173.295
172.319
183.931
202.114
218.057
227.959
233.837
239.414
245.285
247.766
242.586
230.034
217.146
213.408
222.077
237.278
247.182
242.504
223.89
202.527
191.671
196.77
211.052
220.491
214.274
192.851
166.996
148.652
141.052
136.497
123.881
100.03
74.8506
65.6665
84.4118
126.975
173.747
201.65
198.931
171.241
135.758
107.783
90.6034
76.4032
56.8777
34.1363
22.7934
40.5947
94.3743
171.608
244.436
283.895
274.78
222.412
147.937
77.0092
28.066
7.97017
14.3694
40.5472
79.0512
122.288
162.174
191.361
205.101
203.572
191.933
177.594
165.787
157.409
149.919
140.901
130.722
123.128
122.841
132.063
148.412
165.846
177.743
180.671
175.389
165.689
155.323
146.531
140.239
137.046
138.458
145.495
156.499
165.153
162.76
143.709
110.587
75.5828
55.5055
62.4521
96.1768
142.476
179.746
190.391
170.179
129.524
87.4141
61.1857
57.8605
72.3322
92.2061
105.042
104.185
90.3849
69.6314
49.0138
33.335
24.4402
22.4233
27.103
38.7399
57.9675
84.0399
113.486
139.898
155.417
153.299
130.749
91.0811
43.5465
1.02667
-24.0188
-24.5636
-1.97872
33.8824
68.7294
90.0708
93.3071
83.6189
72.5789
71.6777
85.251
108.401
130.243
140.811
137.219
124.961
113.877
111.61
118.787
129.258
134.439
129.181
115.339
101.169
96.3256
106.44
130.118
159.115
182.617
192.543
187.082
170.764
151.324
135.044
123.403
113.531
101.676
87.5709
76.1434
74.9601
89.2326
117.433
151.053
178.577
191.556
188.465
173.85
154.692
135.822
118.257
101.64
86.8794
77.2378
76.3078
83.9747
94.5162
98.21
86.6572
58.497
22.0392
-9.03814
-22.8727
-15.9846
4.87466
27.3585
41.1525
44.326
44.0432
51.0366
71.5732
101.779
128.697
137.148
118.652
77.1105
27.9743
-9.06375
-19.8435
-2.08764
33.873
71.3544
96.0499
102.628
96.3305
88.4743
88.9798
100.458
117.23
129.438
129.623
117.476
100.036
86.9154
84.4724
92.737
106.595
119.697
128.476
132.825
133.866
131.811
125.336
113.761
99.9269
89.7313
89.4063
100.587
117.86
131.404
133.102
122.009
105.449
94.363
96.1048
109.288
123.776
126.935
111.841
82.4133
52.4577
39.1399
54.3702
98.3107
157.935
211.528
238.101
226.147
178.581
111.057
44.8352
-2.20466
-22.0848
-18.3389
-1.52239
17.16
30.8346
38.2616
41.6725
42.9761
41.3988
34.3674
20.5464
2.32761
-13.7951
-19.7977
-10.3948
13.4617
44.3597
71.6731
86.837
87.5715
78.4588
67.9011
63.481
67.8058
77.8415
87.2166
90.062
84.0876
71.0509
55.4842
42.3795
35.8829
38.9747
52.9742
76.566
104.987
130.467
145.07
144.722
131.947
115.046
103.864
104.228
114.726
128.621
138.681
141.981
140.82
139.934
142.189
146.35
148.248
144.828
136.839
128.372
123.79
124.57
128.286
130.635
128.558
121.799
112.11
100.813
87.8103
72.8856
57.8727
47.7276
48.5211
63.3885
89.2129
116.754
134.83
136.105
120.892
96.2999
71.7816
53.7049
42.3637
33.5064
22.8037
9.72422
-1.11198
-2.65257
9.80774
35.1416
66.0811
92.2862
105.205
102.103
87.1175
68.6792
55.4437
52.3022
58.2876
67.6919
73.3452
70.6694
60.5268
49.2999
46.0982
57.8875
84.991
119.729
149.055
160.641
148.983
118.712
82.625
55.4491
46.5033
55.6143
74.4467
91.5412
98.6428
94.2501
82.6341
70.2813
61.7688
58.1612
58.1927
60.696
66.2131
76.7097
93.7243
116.203
139.707
156.852
159.76
143.239
107.608
59.8139
12.1199
-21.8945
-32.8208
-19.3402
11.0838
45.6162
71.7402
82.5857
79.1882
68.3671
58.2472
54.1273
56.4038
61.4955
64.4084
61.874
54.109
44.7623
39.32
42.2824
54.6414
72.7209
89.3104
97.3538
93.4068
79.8647
63.8434
53.2838
52.6022
60.5838
71.6409
79.3321
80.1671
74.6599
66.1401
58.8549
56.2206
60.0351
70.3223
85.2905
100.964
111.79
112.9
103.186
87.3681
74.5973
74.0987
90.019
118.351
148.316
167.572
168.307
150.675
122.426
94.795
77.1984
73.4352
80.6682
91.4514
97.6251
93.9978
80.987
64.4422
52.5912
51.4032
60.93
74.6874
82.9691
78.9295
62.9306
43.3108
32.1666
38.4081
61.9438
92.5361
114.535
114.822
89.9089
48.6115
8.65121
-11.0197
0.772042
42.1306
98.2007
147.549
171.586
163.049
129.174
87.8734
59.2433
55.8926
77.1154
109.946
136.338
142.868
127.332
98.9011
72.2516
59.1671
62.3434
74.883
85.5688
86.5104
78.234
69.0623
69.2783
84.1498
110.166
136.806
152.971
153.335
140.778
123.417
108.767
99.1431
91.724
82.723
71.6436
63.0636
63.6425
77.2377
101.994
131.344
158.095
177.844
189.592
193.321
186.761
165.218
125.478
71.4182
16.0774
-22.14
-28.0883
1.97351
56.9031
115.227
155.391
165.584
148.19
117.033
89.6108
78.6243
87.1004
109.007
133.665
150.973
155.364
147.26
132.085
117.549
110.27
112.703
122.129
131.866
135.143
129.638
119.617
113.598
118.186
132.44
146.273
146.335
125.848
91.1321
60.2185
52.4515
75.24
117.657
156.121
168.768
149.687
112.636
81.8917
75.5669
93.9175
120.726
135.889
130.042
110.975
97.0059
102.87
128.735
159.31
175.085
165.666
136.121
103.09
82.9489
80.8211
88.3452
91.0415
79.8908
58.3468
40.44
40.9361
64.2728
100.16
128.657
132.17
106.91
66.1091
32.8355
26.6232
51.8392
95.0258
132.811
146.29
131.776
101.926
76.574
69.311
79.1599
92.6724
94.4622
79.1249
55.7823
42.1404
51.9795
85.0615
126.091
153.737
153.799
127.955
92.8044
69.3423
70.352
92.7013
119.62
131.653
118.591
85.7138
50.8357
32.6435
39.4777
64.6985
91.4115
104.012
98.2919
83.0149
72.7518
77.126
94.6869
115.033
127.578
129.831
128.993
135.181
151.724
170.267
174.63
151.148
98.7965
31.5655
-28.3332
-62.4554
-65.5065
-45.2395
-14.9248
16.0114
45.3678
75.2339
105.02
127.291
-1e-006
-1.8e-005
-5.9e-005
-0.000109
-0.000133
-0.000129
-0.000111
-0.00012
-0.000201
-0.00036
-0.000537
-0.000638
-0.000618
-0.000536
-0.000522
-0.000716
-0.001133
-0.00161
-0.001862
-0.001684
-0.001123
-0.000625
-0.000998
-0.003289
-0.008587
-0.012296
0.038587
0.114775
0.115888
-0.046656
-0.240827
-0.373966
-0.322186
-0.082442
0.175635
0.142698
-0.339477
-1.04983
-1.50377
-1.362
-0.576576
0.286933
0.37591
-0.853056
-3.03822
-4.97975
-4.8373
-1.02985
7.2373
19.5606
34.3181
48.9823
60.7344
67.2282
67.425
62.0873
53.7216
46.0849
42.8676
46.1087
55.0537
66.2383
74.8172
76.7259
70.6364
59.1123
47.7002
42.2259
45.7488
56.6014
68.7015
74.2958
68.5921
52.9516
34.9259
24.6131
29.0505
47.5976
71.9427
90.9146
97.4426
92.6253
84.4959
81.8632
87.6841
96.9713
101.034
95.1072
83.1431
76.0033
83.8116
107.355
135.393
150.347
139.424
103.129
56.2345
19.8444
10.1036
29.9803
68.9776
109.919
138.167
147.652
141.71
129.093
118.903
117.356
126.515
144.462
166.065
184.048
190.519
179.354
148.719
102.732
50.893
5.13073
-23.8661
-30.2591
-15.0372
14.0277
45.4154
68.2211
76.31
70.6489
58.4029
48.8808
48.5359
57.7165
70.7384
79.5913
78.8643
69.1298
56.5447
49.1506
52.1411
65.1047
82.4646
96.9738
103.679
101.966
94.764
85.7603
77.5815
71.3083
67.6261
67.9216
73.8434
85.2574
98.6926
107.997
107.732
96.7172
80.0085
66.7498
65.2521
78.4747
101.938
125.899
140.573
140.797
128.054
109.046
92.4802
85.2619
89.7508
103.025
118.381
128.157
127.47
116.634
101.028
88.3149
83.8813
87.7366
94.5601
97.3266
92.1275
81.1634
71.3864
69.7103
78.3377
93.0382
105.367
107.742
98.0909
80.8007
64.0355
54.998
56.2241
64.7691
74.6258
80.387
80.175
76.0055
71.8811
70.7097
72.2041
73.324
70.5651
63.0067
53.7447
48.7103
53.1908
68.5691
90.7192
112
124.667
124.607
113.241
96.4041
81.4238
73.7802
75.0882
82.5662
89.851
90.0429
79.4382
60.0612
40.2837
31.7261
43.5027
76.5243
121.189
161.149
180.865
172.992
141.884
101.162
66.7603
49.2244
50.2379
63.4764
78.8489
88.2815
89.6091
87.3097
89.8728
104.696
133.253
168.426
196.181
201.227
174.742
119.886
52.1673
-6.64055
-38.232
-35.6316
-5.59132
35.8309
71.1591
89.11
87.4581
71.5551
50.1254
31.4031
20.9825
21.2827
31.469
47.8759
64.8425
76.596
79.6576
74.3666
64.0081
52.8778
44.2227
39.2252
37.8305
40.1819
46.8502
57.5381
69.5844
78.385
79.8908
73.6079
63.9625
57.9091
60.357
70.0417
79.7769
80.9682
69.8668
51.0547
35.0772
32.1219
45.5175
69.4115
92.6667
105.761
106.223
98.6981
90.5828
86.2764
84.3821
79.9332
69.3443
54.2024
41.0286
36.9033
44.0208
57.5259
68.2111
68.414
57.1089
40.6564
28.7755
28.056
37.2851
48.2278
51.0745
41.0516
21.9768
4.46633
-0.47505
12.0452
37.7469
65.614
83.952
86.6263
75.3253
57.6451
42.4352
35.3839
37.3294
45.4633
55.5588
63.4121
65.8427
61.5593
51.57
39.6916
31.7459
32.7697
43.7259
60.0679
73.7012
77.6258
70.2653
56.5173
44.2103
38.7264
40.0911
44.6067
49.2723
55.7353
69.6836
95.5258
130.605
163.839
180.654
171.706
139.337
97.0007
61.4879
43.437
42.2511
48.7198
52.963
51.8604
50.7676
58.6097
80.376
112.229
142.503
157.927
150.518
121.343
79.2093
36.3356
3.33409
-13.45
-12.24
5.07633
33.5659
65.8042
93.0118
107.522
106.127
92.2457
74.6571
63.2507
63.5186
73.3428
84.3075
87.0943
77.5777
59.6879
43.0925
37.4133
46.1539
64.5996
82.8131
91.3162
86.1217
70.1605
51.1346
37.3949
34.3305
42.8416
59.7218
79.0876
94.0205
98.4314
89.0362
67.2603
39.8067
16.9503
8.58065
19.6359
47.0843
80.6774
107.545
118.157
110.849
92.2891
73.7356
65.2856
70.8368
86.6581
103.898
113.617
111.564
100.47
88.1699
82.9079
88.4516
101.579
113.854
116.523
105.801
85.3252
64.1967
51.5618
51.187
59.3032
67.5343
68.6122
61.4349
52.2861
50.5312
61.9373
84.3026
107.799
120.703
116.507
98.0427
75.8687
61.6904
61.2465
71.5123
83.5206
88.7352
84.7789
76.5447
72.1619
77.0262
89.8719
103.376
109.047
102.716
87.4081
71.979
66.0326
74.4184
94.4152
117.105
132.164
133.435
121.801
104.128
89.1317
82.598
84.9943
92.3177
99.3921
103.053
103.041
100.566
96.4241
90.3291
82.3633
75.266
74.7318
86.7767
112.947
146.942
175.316
183.184
162.371
116.502
59.9648
11.2866
-15.7445
-17.8316
-1.91974
20.0503
38.0046
47.8272
51.0081
51.6551
52.7949
54.5872
54.9004
51.3972
43.3622
32.5783
22.8082
18.0776
20.792
30.0998
41.8545
50.7816
53.5511
50.9672
47.917
50.1623
59.9922
73.9122
84.2517
84.0401
72.1078
54.5342
41.0495
38.6696
46.9914
58.4288
63.3681
56.6571
41.1141
25.7001
19.9137
28.2709
48.2637
72.5619
93.539
106.827
112.078
111.67
108.651
105.349
102.933
101.353
99.2925
94.4232
84.6017
69.5701
52.4521
39.3205
36.2187
45.6538
64.4026
84.7281
98.2074
100.059
91.2106
76.8175
62.6117
51.6064
43.4809
36.1959
28.5477
21.6483
18.1508
20.0595
27.0398
36.4523
44.7535
49.3044
49.5733
47.016
44.258
43.9483
47.6058
54.8935
63.5181
69.8905
70.7281
64.9344
54.6522
44.5298
39.2309
40.3158
44.9024
47.2633
42.749
31.5271
19.394
14.8008
23.5929
44.8883
70.8442
90.7322
96.8253
88.1963
70.4761
51.8738
38.6696
32.9915
33.4502
37.4849
43.0114
48.3862
51.6471
50.6186
44.7835
37.3147
35.0797
45.1765
69.5748
101.476
126.844
131.186
108.082
64.1817
16.9413
-13.745
-15.7396
9.41451
48.1588
82.6825
100.191
98.3757
84.7046
70.7878
65.7421
72.1446
86.1264
100.677
109.515
109.793
102.522
91.0707
79.2909
70.0438
64.4796
62.0585
61.2668
60.9146
61.2815
64.4439
73.2751
89.1139
109.262
126.318
130.89
117.072
87.4956
54.3746
34.6166
40.7305
72.5965
115.909
149.053
154.998
131.199
91.2751
57.3302
47.4449
65.8176
101.341
135.043
151.164
145.248
124.852
103.383
91.6038
92.2128
100.115
107.131
107.55
101.064
91.8415
84.8652
82.5289
83.5125
84.4747
82.9169
79.1492
75.9809
76.4157
80.8655
85.7302
85.2202
74.8804
55.1066
32.0825
15.017
11.5146
23.3439
45.4569
68.8341
85.4216
92.1532
91.6655
89.37
89.2307
90.9443
90.511
84.0082
71.4899
57.9865
50.9039
54.8265
67.8015
81.9134
87.9521
81.5541
66.6891
53.8169
53.5525
70.0802
98.167
125.806
140.66
136.454
115.625
87.3898
62.6969
49.0392
47.6815
54.1995
61.681
64.626
61.9944
57.9587
59.9393
74.5754
103.055
138.77
168.606
178.163
158.465
110.937
47.6358
-13.2182
-54.2582
-65.5217
-47.4384
-9.67886
33.2295
67.2406
83.1351
79.0789
60.6387
38.0725
22.0474
19.2521
29.7762
47.7584
64.7472
74.0654
73.7856
66.4905
56.7423
48.4178
43.2462
41.3806
42.7188
47.7931
56.8785
68.437
78.4424
81.6588
74.4561
57.4125
36.123
19.207
14.2718
23.8384
43.5977
63.9712
74.7946
70.6421
54.3295
36.0654
28.3912
39.3687
67.3992
101.24
125.095
126.761
104.506
68.1359
34.0386
16.5552
20.6671
39.9565
60.7397
70.0322
62.542
42.8616
21.9376
10.5103
13.2096
26.5526
41.8488
50.3834
48.2475
37.879
25.8599
18.7403
19.5674
26.9175
36.7089
45.3653
51.7123
56.6282
60.7219
62.715
59.6901
49.4843
33.7437
18.5441
12.0004
19.6366
40.6212
67.4182
89.2692
97.5958
90.261
72.3699
53.466
42.5394
44.223
57.4346
76.7297
95.3396
107.822
111.437
106.156
93.6421
76.3636
56.8974
37.8564
21.7578
10.9503
7.10847
10.5194
19.8232
32.1143
43.694
51.4898
54.3165
53.6558
53.1127
56.9251
67.5307
83.9567
101.518
112.938
111.194
92.8473
60.4251
22.4639
-9.10464
-23.5759
-15.9934
10.1303
44.3509
73.7151
88.4067
86.216
73.0179
59.453
55.3799
64.7854
83.9916
103.747
114.136
109.743
92.5058
70.9963
55.9253
54.4019
66.2076
83.9792
97.4409
99.0733
88.2083
71.3228
58.0474
55.355
63.4895
76.5999
86.7234
88.9238
83.8366
76.1829
70.7974
69.3238
69.6172
68.3215
64.2338
59.8565
59.557
65.9181
77.0043
87.0885
90.1368
83.5812
70.033
55.4296
45.2568
41.3362
41.5929
42.2897
41.1517
38.5002
36.5238
37.1099
39.9871
42.9772
43.7745
41.562
37.4193
33.1712
30.021
27.9828
26.374
24.8468
23.8521
24.2259
26.3047
29.2376
31.3457
31.2233
28.6823
24.7296
21.2096
19.9848
22.426
28.9942
38.5734
48.5329
55.1795
55.3408
48.4412
37.7299
29.2926
29.2173
39.9396
58.1846
76.3998
86.8489
86.119
77.0798
66.8927
62.4613
66.1659
74.6092
81.1221
80.0012
69.879
54.071
38.3114
27.4218
23.1966
24.3591
28.2173
32.735
37.3167
42.7069
50.1119
60.2406
72.3923
84.1394
91.5149
90.2672
77.5261
54.0553
25.4856
0.819665
-11.2224
-6.55355
11.5666
33.8141
49.8284
53.8384
47.9571
40.4629
40.072
50.2356
66.9403
81.4083
85.9326
79.0249
65.8373
54.4125
49.9813
51.6755
53.8162
50.5507
40.6411
28.6758
22.0471
25.8295
39.5083
-2e-006
-1.9e-005
-4.4e-005
-6.1e-005
-5.8e-005
-3.8e-005
-3e-005
-7.2e-005
-0.000171
-0.000289
-0.000356
-0.000327
-0.000235
-0.000187
-0.000304
-0.000615
-0.001002
-0.001246
-0.001169
-0.000769
-0.000313
-0.000287
-0.001233
-0.003563
-0.007457
-0.006486
0.053736
0.07015
0.015811
-0.096018
-0.207475
-0.188647
-0.006771
0.200014
0.218542
-0.089156
-0.615903
-1.00282
-0.906714
-0.260166
0.506917
0.714375
-0.10611
-1.77245
-3.4302
-3.82115
-1.95009
2.33259
8.17879
14.148
18.7426
21.2324
22.2523
23.6477
27.4194
34.4666
43.3748
50.6933
52.9925
49.2477
42.3639
38.4084
43.1388
58.0222
78.2058
94.1523
96.431
80.9737
51.6965
19.2033
-4.16666
-10.1446
1.9261
25.2272
48.7521
62.2242
60.0144
43.4676
20.7399
3.59466
2.66707
23.1345
61.8874
108.45
149.366
173.501
175.723
157.29
123.106
78.7497
29.0274
-20.5999
-62.6075
-87.6446
-87.5814
-60.1478
-11.8031
43.7652
90.3619
115.858
116.434
96.76
67.4035
40.5729
26.1261
28.9529
47.4547
73.9706
97.7687
109.362
105.206
90.328
75.8752
72.5347
83.588
102.296
115.658
112.713
92.1694
64.1407
44.0141
42.6429
59.3375
82.303
96.3459
92.931
74.7757
53.4667
41.5282
44.4353
58.1019
73.1644
81.9148
83.0718
81.4893
83.4695
91.7976
104.131
115.133
120.773
120.914
119.407
121.333
129.705
143.855
159.511
170.07
169.1
152.488
120.809
80.603
42.7285
18.5776
14.8597
29.8246
53.5638
73.0166
78.7913
70.1028
54.6135
43.2055
43.2337
54.4347
69.5135
78.9106
76.614
63.1737
44.7468
29.3248
22.5334
25.4225
35.0181
46.4255
55.1181
58.638
57.0277
52.1895
46.7133
42.936
42.1211
44.1698
48.2017
53.4607
59.6599
66.9487
75.1108
82.8014
87.3541
85.7136
76.4711
61.5464
46.5421
39.0393
44.8521
64.7559
93.6262
122.343
141.852
147.525
140.593
126.521
111.249
97.9253
85.93
72.3794
54.8666
34.0577
13.8338
-0.596028
-5.2349
0.660697
14.1747
30.2375
43.9538
52.8245
57.1843
59.3579
61.8434
65.5268
68.9649
69.6227
66.0263
59.172
52.434
49.8698
53.3505
60.9017
67.5142
68.2229
61.5144
50.9
43.1199
44.123
55.0544
70.7065
82.5008
83.2703
71.3565
52.2918
36.3423
32.3218
43.4719
65.4365
88.5909
103.381
106.05
100.129
93.9524
95.1031
104.104
113.866
115.16
104.369
88.1559
81.1015
95.6486
131.139
170.993
191.429
177.027
133.166
85.3869
63.9924
84.0117
134.219
183.149
199.179
171.323
116.111
66.1256
48.3872
67.8957
106.204
135.739
138.394
115.468
83.4342
60.7083
56.0612
66.224
82.4531
98.5504
113.92
130.081
144.631
150.131
138.649
108.568
68.5006
33.9778
17.8034
23.1469
42.1125
61.1639
69.3725
64.6238
52.4699
41.2004
36.4377
37.946
41.7391
44.6576
46.946
51.2487
59.5278
69.9164
75.7258
69.615
49.8867
24.1392
7.62238
15.9424
55.269
116.427
176.994
211.713
205.424
161.477
100.19
48.2999
24.9593
33.2151
60.5008
88.2496
103.131
103.198
95.8622
90.5952
91.8305
97.4722
102.833
106.034
110.314
120.986
139.835
161.515
175.575
173.129
153.065
124.297
100.698
93.2132
104.102
125.652
145.138
151.111
138.046
108.259
70.7242
38.3616
25.1668
41.4918
89.0658
157.406
225.075
267.616
269.575
234.165
182.15
140.999
127.721
137.701
148.095
134.49
90.2146
35.8711
9.92257
44.6078
143.26
273.024
379.811
417.332
371.807
268.312
155.019
76.8392
54.3767
80.0594
129.223
176.828
208.35
219.774
211.965
186.051
144.529
95.6306
54.931
40.0963
60.8144
111.741
172.656
217.797
228.953
203.157
152.504
95.6717
49.0071
22.1495
18.7189
38.5825
78.8955
132.256
185.067
220.345
224.592
194.472
139.724
79.8319
34.1305
13.6279
17.1299
34.2762
53.0451
66.7758
75.8466
84.9389
98.071
114.614
130.325
140.839
145.382
148.132
154.953
168.001
182.183
186.918
172.273
136.755
90.9806
54.2727
44.9812
69.3334
116.959
165.315
191.42
184.132
150.015
108.779
81.7608
80.212
100.044
125.992
141.881
139.607
122.715
102.597
91.1201
93.5018
107.068
124.741
140.233
152.267
163.924
178.772
196.7
212.554
218.789
211.135
193.656
177.039
172.178
182.187
198.545
205.656
190.953
154.887
112.188
83.9912
85.5319
117.846
168.587
221.234
264.607
295.925
316.763
326.939
322.113
298.166
257.608
212.423
178.544
165.056
167.143
168.778
154.195
120.64
82.8499
64.8665
83.6916
136.439
199.375
241.221
241.644
202.769
147.587
105.834
95.9924
114.632
140.195
147.169
122.167
72.4763
22.2331
-1.48377
15.5201
66.5276
128.169
173.856
189.033
177.974
159.318
153.232
168.406
196.96
219.501
217.822
185.459
131.435
75.2168
36.3745
25.3447
40.1914
69.1929
97.6021
114.446
116.388
107.613
97.0256
93.6915
103.042
124.56
151.345
172.482
177.578
161.279
126.513
83.8918
47.5406
28.8336
31.2493
49.006
70.9634
87.2235
94.692
98.7883
109.68
134.918
173.25
213.404
239.038
237.586
207.367
159.062
110.96
79.1126
70.1056
79.018
93.9358
102.929
100.764
91.2689
84.5514
91.7443
119.841
167.292
223.154
269.809
289.025
269.236
211.45
130.801
52.0359
-0.475467
-11.9368
18.1404
77.748
148.709
213.736
260.607
283.978
284.939
270.03
250.01
236.588
237.456
251.863
269.629
275.872
259.63
220.701
170.71
126.877
102.655
101.503
116.38
135.32
148.339
151.65
146.816
137.714
127.979
120.717
118.798
124.672
137.395
152.35
163.115
165.608
161.348
157.046
159.507
169.131
177.833
174.49
153.801
122.186
95.5905
89.7476
109.081
142.902
172.142
182.565
174.629
163.015
165.323
188.354
222.079
246.123
243.863
215.184
177.35
153.964
159.595
190.643
229.402
257.651
269.522
273.982
285.143
308.02
331.278
332.985
295.972
222.576
136.966
73.0847
55.5985
86.343
144.215
198.358
225.269
220.487
197.911
179.348
180.89
205.569
243.741
279.836
301.129
303.514
292.409
279.055
274.119
281.042
293.613
298.421
282.476
241.559
184.73
131.416
102.114
107.394
143.004
192.677
237.309
263.687
268.393
255.783
232.411
203.042
170.927
139.933
115.4
102.07
100.491
105.476
108.421
102.406
86.7169
67.422
53.2733
50.5259
59.6689
76.1897
94.0231
108.508
117.804
122.369
123.145
120.61
114.415
104.021
89.5141
72.3622
55.8133
45.1244
45.2655
57.6912
78.4432
98.5467
108.506
104.663
93.1113
86.6556
96.4651
123.086
153.914
169.497
155.816
114.668
64.6424
30.5416
28.7223
56.9684
96.4422
123.291
122.951
98.2466
65.7943
44.5254
44.7433
63.2946
87.6131
104.499
107.293
97.9507
83.9422
73.1515
70.7767
78.5678
95.8753
120.489
148.175
172.058
183.265
174.294
144.093
100.917
60.7682
40.963
51.2551
87.7552
133.935
168.272
175.966
157.621
128.671
110.193
116.139
144.734
179.345
198.858
192.483
167.56
146.26
151.613
191
247.687
287.373
277.853
210.049
107.994
19.4595
-9.58122
37.8336
137.621
236.658
283.796
260.835
194.449
140.173
146.793
224.065
334.298
413.789
411.393
320.232
182.317
63.8319
16.2681
48.2912
124.375
189.242
201.643
156.325
82.4898
22.7125
6.00186
32.7411
78.6275
112.207
113.853
85.4258
45.6448
16.8843
12.1871
29.4046
54.6394
71.5458
70.558
53.1329
29.7845
14.8128
19.2732
45.865
87.5462
130.07
158.082
162.28
144.234
115.705
93.1054
89.1042
105.622
132.582
153.565
155.263
134.714
100.265
66.2777
44.5488
38.2915
42.4944
49.3207
54.0912
57.3172
61.9042
68.3465
73.1388
71.7907
63.7419
55.7867
58.848
79.7992
115.199
152.011
175.117
175.773
156.195
126.647
98.1195
76.3857
62.1141
56.048
62.7608
88.1966
132.606
185.019
225.203
234.214
207.27
158.855
115.414
99.9684
118.572
158.421
198.203
223.061
233.11
239.214
250.301
262.987
262.122
232.419
173.232
104.458
58.7894
62.9631
120.802
208.692
286.11
316.1
284.155
204.33
110.279
36.9772
3.80213
7.71153
29.4438
47.1279
47.9546
33.095
13.6561
1.20988
0.743189
9.99532
23.4012
36.5073
48.0968
58.6192
67.6661
72.8879
71.5683
63.4988
52.0744
42.5359
38.7235
41.3034
48.0686
56.0145
63.5584
70.4166
76.2254
79.2039
76.5558
66.9534
52.71
39.3923
33.1104
36.7095
47.4554
58.3438
62.3095
56.383
43.4512
30.0847
22.1257
20.4787
20.717
17.2564
8.24824
-2.52005
-7.07783
0.61444
18.903
37.7498
44.4013
32.4868
8.05136
-11.7222
-8.22678
26.6585
84.7214
144.705
184.265
193.026
178.231
160.359
160.512
187.224
230.862
268.324
275.52
240.817
172.18
94.411
38.2418
26.4188
63.7579
135.933
217.166
282.489
317.896
323.746
310.239
288.783
264.859
236.762
200.102
154.157
104.648
61.1857
31.6404
17.5229
13.9432
13.8757
13.2133
12.4365
14.1671
20.225
29.5311
38.3528
43.6298
44.8914
43.9158
42.8481
42.542
42.6816
42.7369
42.8243
43.0711
42.483
39.1876
31.9391
22.3059
15.4413
17.5701
32.0117
55.8478
79.891
232.202
209.276
161.046
107.87
72.2031
69.5028
102.583
161.768
227.915
278.337
293.751
265.005
197.21
108.979
26.2473
-27.4684
-40.6327
-18.8665
18.1105
47.3272
54.9137
42.2891
24.417
20.0408
39.795
79.2333
121.731
147.974
146.715
120.336
82.1975
48.9531
32.7612
37.0293
56.59
81.9422
102.956
111.297
103.793
84.6532
65.8311
62.2127
84.2092
130.451
185.752
228.279
242.763
229.931
205.873
191.023
195.976
214.687
231.023
232.946
223.206
216.74
226.687
250.389
267.446
254.874
207.657
149.326
121.862
158.634
258.646
380.689
463.514
460.486
367.085
224.372
96.2486
35.0097
56.5899
137.318
231.107
294.744
306.868
272.133
212.55
154.523
117.936
111.274
131.976
169.035
206.679
230.61
233.728
218.329
194.801
175.753
168.129
168.462
165.503
148.369
114.819
73.8417
41.877
33.3184
51.4111
86.0427
119.017
132.992
120.648
87.2668
48.1102
21.1531
18.8362
42.7922
83.6598
125.734
154.02
160.322
146.563
122.631
100.211
86.2635
80.4324
78.037
76.4952
79.3748
94.7517
127.661
172.698
213.567
231.279
216.79
179.286
142.354
129.139
146.118
177.347
194.215
175.154
121.654
58.9158
20.3997
26.334
70.6934
125.332
158.649
154.967
122.863
87.0952
71.2443
83.4337
112.956
139.441
146.861
132.203
105.074
79.9782
66.9562
67.6015
76.1007
84.6044
88.019
85.4764
78.9062
71.2966
65.2933
62.9864
65.1846
70.8353
76.9276
79.5311
75.5516
65.0714
51.8993
42.0528
40.4722
48.8005
64.7622
83.7404
101.835
117.105
128.968
136.509
136.891
125.977
101.426
66.4062
30.5332
6.92624
5.76534
27.8268
63.2118
96.1225
112.691
108.348
89.0212
66.4185
50.2716
43.2058
41.8702
41.25
38.7084
34.0742
27.2574
16.4233
-0.05357
-18.9725
-29.647
-18.3182
22.0627
83.8651
145.513
183.208
186.727
167.075
149.27
153.788
179.533
202.269
191.481
134.426
49.6111
-20.9778
-37.5427
11.2986
100.144
182.679
221.083
208.576
170.983
146.599
159.125
202.531
247.023
260.097
228.745
167.742
109.952
85.8669
105.733
154.559
202.345
222.33
205.601
165.323
128.042
118.201
144.345
195.304
247.825
279.533
281.036
258.436
227.1
201.168
186.072
178.918
174.47
170.643
170.011
177.145
193.232
214.567
236.094
254.746
270
282.254
290.58
293.889
293.976
296.348
307.318
327.374
347.283
352.017
331.303
289.668
246.076
221.702
224.961
245.46
262.394
261.942
249.594
246.022
268.354
311.233
345.524
337.135
273.931
180.391
106.425
97.0081
162.545
271.318
368.492
408.897
381.862
312.976
244.117
207.547
210.902
239.325
270.208
288.668
293.186
291.7
292.753
298.595
304.996
306.5
299.927
286.631
272.784
265.176
266.663
274.897
282.704
281.525
265.618
234.988
196.546
162.014
143.484
148.237
175.106
214.431
251.212
271.231
268.266
248.395
228.36
226.966
253.652
300.536
343.736
354.646
316.415
235.434
140.283
67.7669
43.6631
70.161
125.689
177.855
200.207
184.371
141.532
94.0833
63.6316
62.7826
90.9964
135.992
179.253
203.31
199.156
170.604
133.498
108.478
109.838
137.184
174.733
201.139
204.443
190.256
178.362
189.157
227.601
277.228
309.196
301.028
252.408
187.452
141.186
137.838
176.191
230.509
266.845
264.376
227.265
180.328
152.192
156.766
185.453
213.793
218.078
190.169
141.341
93.4091
64.6756
59.9932
71.2539
86.5708
99.5477
112.201
129.69
152.938
175.301
186.639
181.692
165.686
151.612
151.231
166.526
187.695
200.78
197.014
178.435
155.68
140.182
137.844
148.415
169.8
201.7
244.05
291.965
332.501
347.526
323.614
262.345
182.584
111.987
72.7311
70.4458
92.7274
118.371
130.65
125.766
113.092
107.238
118.235
146.206
181.728
210.951
221.401
207.271
170.953
122.439
75.7808
44.1702
35.0722
47.3519
72.232
97.9113
115.194
121.043
118.587
113.644
110.345
108.85
105.751
96.8437
80.6547
60.0529
41.5195
33.0789
40.1702
62.742
94.3435
124.243
142.72
145.686
136.966
126.206
122.626
129.079
140.7
148.505
145.849
132.912
116.794
106.022
105.112
112.481
123.253
134.245
146.077
162.448
185.313
211.077
230.688
233.988
215.212
176.332
126.593
79.5606
47.9921
39.4793
53.2486
79.6722
103.709
111.909
100.487
79.1524
66.8634
80.0911
120.72
171.748
205.695
201.225
157.719
97.2467
51.8825
44.4236
75.6078
125.777
169.091
189.607
188.194
176.838
166.819
160.031
150.236
132.263
110.087
96.8767
106.313
141.608
190.214
228.569
235.205
202.539
141.094
73.8737
24.4606
6.27358
16.9738
42.5821
66.1162
76.4195
72.5321
61.8673
54.3387
55.7218
64.4563
73.4939
75.1519
66.343
50.8673
37.0745
33.0248
42.1735
61.5995
83.5371
99.5609
104.308
97.8157
85.3062
74.3835
71.0949
76.7795
87.3782
94.5957
90.6931
73.6178
49.5018
30.8014
29.9033
51.6955
89.7626
129.184
154.459
158.396
146.11
130.859
124.708
130.536
140.848
144.333
135.642
120.911
114.315
127.715
160.587
197.659
216.992
203.32
157.756
97.8534
47.7073
24.3578
29.4712
51.3697
74.5065
89.5779
97.9206
107.294
123.418
143.844
158.512
156.503
134.471
100.49
70.4979
59.8399
74.3305
106.864
141.372
161.197
157.609
134.278
105.19
86.651
88.5472
109.02
135.856
153.649
152.819
135.334
113.38
102.273
111.13
137.776
170.612
196.149
206.835
204.208
195.53
186.997
179.104
167.475
148.351
124.039
103.723
98.5723
114.456
146.893
182.158
203.611
200.285
172.024
128.867
87.2264
64.1265
71.4325
111.461
175.56
245.22
297.986
316.378
296.331
249.49
197.894
162.016
150.008
154.411
158.958
150.666
128.818
104.863
93.5172
101.621
122.985
142.333
145.417
128.42
99.5731
72.7024
57.8916
55.4546
58.0467
58.2755
55.6789
57.6519
73.6475
106.86
149.057
183.407
193.48
173.288
131.723
88.6863
64.39
68.3587
94.8405
127.453
149.228
152.385
141.113
126.721
118.834
118.291
117.529
107.356
84.6737
55.4249
31.6886
23.4486
32.8882
53.4302
74.7628
89.1722
94.9097
94.6772
91.9421
87.8655
81.9884
74.8517
69.9681
72.8196
86.7722
109.588
133.52
149.282
151.192
140.749
125.408
114.432
114.717
128.28
152.143
180.342
204.918
217.519
212.061
187.345
148.506
106.276
72.5271
54.4952
51.9305
59.916
73.9483
92.9074
118.753
152.024
187.155
212.997
218.911
202.427
172.298
143.903
129.764
131.427
138.85
138.249
123.207
100.595
88.0088
103.106
151.365
220.614
285.245
318.651
307.013
256.665
191.226
139.687
121.981
139.528
175.957
206.483
211.226
184.85
137.497
87.727
28.9324
44.7533
49.4464
48.8832
54.2683
75.038
110.19
146.235
166.121
161.179
137.662
115.582
115.101
141.738
180.823
205.414
193.891
146.211
87.3889
55.4869
81.0414
169.16
293.922
407.939
464.066
437.69
339.224
210.784
107.077
70.4709
111.394
203.15
294.704
335.461
300.456
200.794
76.9737
-22.1432
-63.0558
-41.0194
22.3656
93.8674
146.346
168.518
165.047
147.758
127.296
109.633
97.3933
92.8295
98.0025
112.909
133.722
153.528
165.755
168.597
166.096
164.784
169.625
180.191
189.041
187.271
170.07
140.237
107.506
83.9764
77.6713
88.1253
106.546
121.074
123.494
113.97
100.662
94.3047
101.529
120.643
142.675
156.797
156.253
141.75
120.574
101.534
90.1987
86.3622
86.2222
86.0095
84.8904
85.2066
90.0395
100.221
112.481
120.832
119.636
106.423
83.2845
55.6135
29.8827
10.7366
-0.349469
-5.29634
-7.75521
-11.1025
-16.5346
-22.1557
-23.7727
-17.1967
-0.942891
21.9856
44.5585
59.2155
61.6949
53.2275
39.6324
28.3969
24.5514
28.3701
36.4813
44.6452
50.8458
56.7526
66.3655
83.436
108.566
137.487
162.226
174.404
169.708
151.273
129.578
117.979
125.231
149.122
175.794
185.931
165.137
113.007
45.0617
-13.9914
-42.2513
-31.3056
10.3966
63.0727
106.007
126.747
124.583
107.833
87.6064
72.0062
63.8817
61.4276
60.7147
58.2877
52.973
46.6411
43.4212
47.7749
61.8401
83.5562
106.677
123.578
128.687
120.797
103.165
82.0767
64.0956
53.7254
53.2091
62.4695
79.1685
99.1919
117.442
129.499
133.429
130.275
123.094
114.565
105.387
94.4701
80.8836
66.4154
56.1456
55.5802
67.2302
88.0714
110.489
126.744
134.045
136.466
142.348
158.208
183.376
209.43
224.147
218.728
192.975
155.565
119.957
98.0545
95.5172
110.49
135.671
161.856
180.977
188.181
182.694
167.951
150.362
137.304
133.845
140.234
151.278
158.393
153.813
134.776
105.159
73.2293
47.7676
34.1622
32.6165
39.1458
48.1293
54.7886
56.4779
53.0029
46.077
38.6303
34.5634
38.2168
52.6919
77.9186
109.421
138.383
155.183
153.915
135.672
108.626
84.6202
73.258
77.0422
90.8595
105.464
113.67
113.951
110.191
108.029
110.454
116.569
122.816
126.254
126.56
125.9
126.558
129.28
133.101
136.67
139.347
140.545
138.592
130.307
113.061
88.2082
62.989
48.6007
54.5555
82.562
123.482
160.589
177.61
166.665
132.04
87.7358
50.2645
30.6781
30.179
41.3128
53.0496
56.6633
49.615
35.5391
21.5994
15.1473
21.2859
42.4998
78.8218
126.995
179.021
222.498
243.582
232.499
189.501
126.719
64.6237
23.3268
13.0417
29.6523
57.7061
79.2052
82.3475
66.2401
39.1652
13.1846
-1.96148
-1.71416
13.143
38.0295
66.0764
89.1826
99.6709
93.1927
71.647
43.7479
21.5114
14.6062
25.0815
46.2384
66.2262
74.9043
69.2538
53.7623
36.7713
25.2809
21.7462
24.4128
29.9375
36.2743
43.0763
50.2266
56.3522
58.9548
56.482
50.22
44.2402
43.1408
48.6633
57.7203
63.5938
60.0529
45.7576
25.7118
9.22227
4.6993
14.8388
34.9933
55.6266
67.1643
64.8033
50.5264
31.3213
15.2263
7.39703
8.5399
15.9982
26.1725
36.5997
46.4448
56.3097
66.8302
77.7091
87.5578
94.7679
97.7066
94.9653
86.0325
72.5201
58.6379
50.1995
51.9958
64.5108
82.0662
95.26
96.6428
86.5158
74.6232
75.3265
98.5317
141.586
188.545
218.204
216.537
186.051
145.04
116.671
114.625
134.295
155.366
155.235
123.852
71.3122
22.4487
2.5801
22.8902
74.4081
134.121
178.405
195.032
187.356
169.32
155.495
153.357
161.571
173.787
183.988
189.226
188.694
181.173
164.77
138.83
107.019
78.4624
64.9969
74.5844
105.643
145.978
178.378
189.323
176.092
147.635
118.731
101.15
97.4187
101.262
103.71
100.412
94.6055
94.1531
104.338
122.65
139.196
142.526
127.142
97.1868
63.9738
39.2086
28.8215
30.818
38.5708
45.6614
49.1201
49.2365
47.0476
42.4864
34.7791
24.461
14.6486
9.93889
13.479
24.2374
36.8158
44.4374
42.8436
32.6125
18.336
5.77504
-1.35183
-2.50562
0.623581
5.87504
11.7369
17.3473
21.6911
23.2841
20.9075
14.7973
7.40181
2.53856
3.36714
10.1514
19.8199
27.7364
30.3388
27.4811
22.6385
20.6042
24.1732
32.0809
39.4482
40.6638
33.0818
18.9658
4.31174
-4.74736
-5.84583
-1.49614
2.99744
3.66091
1.23702
1.15458
9.61869
28.4996
52.6289
71.63
75.9178
62.9784
39.6582
18.7509
11.4405
20.4003
38.2959
52.7762
54.5473
43.9315
30.4998
26.607
38.6994
62.5035
85.5791
95.2391
86.5688
65.1227
42.5987
28.8944
26.2575
29.3642
30.9562
28.2576
25.2559
29.1485
44.0122
66.5823
87.189
95.6194
87.5324
66.9606
43.5466
26.5076
19.8334
21.0057
23.9387
23.368
17.5299
8.24892
-1.21992
-7.92616
-10.1306
-7.29374
0.329922
11.6137
24.1728
34.4173
38.6774
35.0665
24.9019
12.5651
3.58103
2.06357
8.4339
19.1241
28.6514
32.7791
30.6402
25.0883
20.7681
21.1363
26.6528
34.6146
41.0672
43.1698
40.428
34.7241
29.2113
27.0735
30.439
39.5066
51.9586
62.9927
66.4723
57.9233
37.8835
13.3749
-4.37256
-5.60988
11.7046
39.463
63.0173
69.3905
55.3138
29.669
8.83451
7.44202
30.0985
69.1653
109.348
135.871
141.305
127.687
103.502
78.3556
58.6154
45.6867
37.1275
29.4699
20.575
10.6887
2.04937
-2.70915
-2.61762
0.4704
2.60064
0.25077
-6.73684
-13.9831
-14.2051
-1.40341
25.0633
58.8474
89.1085
105.811
104.626
88.7595
66.6797
47.354
35.7617
31.3448
29.807
26.6435
19.9669
11.2004
3.54069
-0.362149
0.088543
3.47943
7.43005
9.83797
9.80227
7.68323
4.63874
2.04927
1.12668
2.46814
5.66513
9.25891
11.3232
10.3786
6.32139
0.905318
-2.82292
-1.91994
4.9795
16.7128
29.8936
40.4938
45.7795
45.788
43.5132
43.3221
48.4136
58.8611
71.0247
78.8822
77.2154
64.5011
43.9232
21.9961
5.3633
-2.51907
-2.73339
0.461026
2.9109
3.12069
2.63358
3.928
7.57343
11.329
12.0944
9.30072
6.90448
11.5338
27.3842
51.6802
74.3624
83.4664
72.8994
47.334
20.539
7.38046
14.7659
37.3985
61.5036
73.7325
69.3442
54.2417
39.9333
35.3544
41.2834
50.5789
54.0347
46.8785
31.5857
15.5602
5.72822
4.06368
7.16861
9.48525
7.71209
3.15729
0.317754
3.27574
12.43
23.6347
31.0792
31.2523
25.3102
18.3885
16.1874
20.9772
30.0037
37.5406
39.2407
35.5052
31.5202
33.7875
45.3949
63.7024
82.0817
94.2089
98.0292
96.5496
94.8092
95.5216
96.861
94.2004
84.2762
68.4931
52.881
44.4159
46.488
56.2516
66.094
68.0035
58.3556
40.0434
20.8018
8.87153
8.79131
19.4343
35.5352
51.3199
63.6071
72.7511
80.8715
88.8977
95.1862
95.9327
87.9649
71.4153
50.2345
30.0728
15.3855
7.3861
4.33024
