0.307084
0.565002
0.561939
0.186176
-0.430104
-0.920967
-0.892466
-0.229246
0.710563
1.20915
0.627614
-1.0678
-3.07445
-4.0915
-3.14964
-0.460273
2.341
2.92067
-0.276707
-6.58871
-12.6732
-13.5339
-4.71567
15.3882
44.3575
76.3976
104.555
123.402
130.868
128.473
120.054
109.907
101.314
96.024
94.5412
96.6395
101.614
108.205
114.573
118.717
119.369
116.897
113.51
112.396
116.071
124.82
136.201
146.053
150.579
148.383
141.325
133.66
129.91
132.582
140.943
151.397
159.186
160.442
153.611
139.742
121.782
103.459
88.2856
78.9119
76.6775
81.2282
90.2675
99.8005
105.193
102.952
92.5228
77.1011
62.6984
55.5954
59.2764
72.4407
89.2915
102.158
105.206
97.3263
82.6546
68.4414
61.4253
64.6427
76.3049
91.163
103.409
109.418
108.907
104.172
98.2131
93.067
89.3409
86.9392
86.1382
87.971
93.4878
102.409
112.301
119.184
119.55
112.676
101.667
92.2497
89.6603
95.3198
105.369
112.263
108.851
92.744
68.3153
44.8617
31.636
32.4856
43.3626
54.5691
56.9006
48.3676
37.4156
40.1545
72.3235
139.844
233.032
328.056
395.627
413.165
374.648
293.38
196.283
112.49
61.6945
47.5884
59.0054
77.4741
86.9319
80.7248
62.8949
43.9555
34.1018
37.7252
51.8836
68.9196
81.1609
84.8052
80.9802
73.8846
67.6344
63.9649
62.0856
60.4019
58.5786
58.3046
62.1384
71.2511
83.7406
94.8903
99.4666
94.7464
82.3732
67.7745
57.3586
55.0871
60.4298
68.8735
74.6209
73.8431
66.6077
56.4991
48.3635
45.6508
48.893
55.998
63.8836
70.2591
74.4825
77.1833
79.182
80.5984
80.7593
78.8599
74.7937
69.4928
64.5103
61.1244
59.5663
58.8775
57.4893
54.1758
48.8318
42.6545
37.6574
35.7778
38.0057
43.9059
51.7088
58.9179
63.2083
63.2968
59.4632
53.4908
47.9854
45.2816
46.3706
50.3541
54.7601
56.6763
54.2241
47.6533
39.4424
33.255
32.1968
37.2419
46.6668
56.8447
64.0269
66.1859
63.9337
60.0213
57.7133
58.9644
63.427
68.8278
72.4425
72.7559
70.3092
67.2499
65.9005
67.2538
70.3248
72.7403
72.1779
67.7593
60.5635
52.9869
47.3804
44.7937
44.5417
44.7879
43.7684
40.9907
37.8533
37.4869
43.9587
61.1172
91.3158
134.204
185.846
238.587
282.109
305.825
302.158
269.566
213.962
147.553
85.2036
39.5794
17.0419
16.0549
28.7599
44.9302
56.421
60.077
57.9064
54.7395
54.8261
59.2608
65.5554
69.4427
67.7567
60.6695
51.9525
47.0625
50.0913
61.2885
76.5794
89.4195
94.0337
88.3158
74.844
59.5025
48.5098
45.4914
50.1384
59.0393
68.0276
74.5874
78.9353
83.2804
89.8823
99.2118
109.382
117.181
120.039
117.696
112.551
108.464
108.69
114.099
122.653
130.368
133.223
129.013
118.251
103.815
89.6141
78.9971
73.6133
73.0954
75.5332
78.3927
79.4643
77.5294
72.6215
65.8943
59.1881
54.4076
52.8579
54.7237
58.8848
63.2043
65.2636
63.3274
57.1759
48.4377
40.2176
36.0831
38.7465
48.93
64.8784
82.7726
97.9753
106.704
107.504
101.881
93.7166
87.5695
86.503
90.432
95.8942
97.5787
91.0654
75.4825
54.6233
35.69
26.0355
29.4469
43.9609
62.5607
76.61
80.316
73.8041
63.0163
56.3636
59.9204
73.8471
92.0959
105.594
107.099
94.9558
73.6925
51.2972
35.0015
28.2057
30.3077
39.2187
54.5261
78.8026
115.79
166.358
224.866
278.657
311.775
311.491
274.397
208.792
131.923
63.312
17.4059
-0.991221
3.34607
20.1362
39.1233
54.1403
63.9978
70.4799
75.289
78.0799
76.7272
69.3967
56.8137
43.0219
33.897
34.0993
44.1677
59.4974
71.9752
73.6238
60.4998
34.8902
4.66328
-19.9749
-30.8068
-24.9959
-6.02483
18.1352
38.6306
49.3591
49.012
40.8088
30.3679
22.9796
21.6419
26.6037
36.2387
48.3852
61.2046
73.1354
82.2814
86.0567
81.784
68.246
47.3608
24.7515
8.36146
5.30583
18.303
43.5726
71.6058
90.8439
92.7314
75.7246
46.1939
15.6482
-4.4258
-7.58485
5.11782
26.3151
46.3175
57.7168
58.2738
50.8832
41.0778
33.7758
31.1379
32.4789
35.8368
39.8695
44.7557
51.615
61.0239
71.7918
80.9256
84.8915
81.4334
70.8941
56.3403
42.5103
34.188
34.7175
45.0715
63.5146
85.7751
105.788
117.196
115.57
100.717
77.8629
56.5736
47.1748
55.9575
81.5548
114.762
142.473
154.066
146.933
127.943
109.756
103.832
114.009
134.366
152.673
157.513
144.985
121.154
98.9322
91.2726
104.622
136.209
176.369
214.155
242.784
261.9
275.75
288.831
301.86
310.477
307.306
286.076
245.519
191.028
133.358
85.0602
56.2032
51.0452
66.7915
94.7577
123.487
142.766
147.158
137.745
121.307
107.14
102.783
110.496
126.187
141.339
147.048
138.21
115.777
86.04
57.472
36.8793
26.8847
25.866
30.0442
36.2514
43.6846
53.7223
68.1259
86.9144
107.33
124.605
134.136
133.871
125.582
114.299
106.181
105.82
114.279
128.738
143.879
154.308
156.886
151.901
142.554
133.085
126.505
123.135
120.736
116.162
107.582
95.9214
84.5435
77.2099
75.4691
77.1376
77.0655
70.0781
54.5655
34.5444
18.6303
16.025
31.436
61.7159
96.327
121.764
127.857
112.708
83.61
53.3878
34.0681
31.2031
41.7746
56.5926
65.6461
63.3474
50.8644
34.5457
21.7016
16.4016
17.7159
21.1968
22.3986
20.0757
17.03
18.1325
26.8346
42.4236
59.8086
72.0706
74.312
66.53
53.7814
43.4923
41.4368
48.6925
61.3005
72.7582
77.7896
75.0883
67.3722
58.7896
51.45
43.5396
30.6186
9.687
-16.3812
-37.1336
-37.4885
-4.69116
63.9343
156.678
249.534
314.546
330.924
293.778
216.187
123.552
42.9215
-7.59899
-24.5112
-17.5025
-2.40255
7.39755
6.67857
-1.12383
-8.07374
-7.57418
1.54776
14.7253
24.7835
26.3242
18.7349
6.24964
-4.71047
-9.22123
-6.47544
-0.00883151
4.42683
2.09735
-8.07707
-22.7689
-35.6769
-40.4151
-33.5038
-16.1165
6.18177
25.5937
35.2301
31.8971
17.3498
-2.51171
-20.1287
-29.3384
-27.6467
-16.7618
-1.2682
13.8013
25.2594
32.8422
38.6708
45.5451
55.0749
66.6605
77.8107
85.5438
88.0577
85.7509
81.0591
77.2128
76.5844
79.496
84.1118
87.4752
87.1568
82.6508
75.773
69.8149
67.8648
71.1635
78.3743
86.1855
90.9514
90.5107
85.2173
77.6484
71.1895
68.3064
69.4549
73.1591
77.0882
79.398
79.5238
78.0413
75.8533
73.3797
70.3629
66.4005
61.7454
57.6679
55.9504
57.7022
62.2329
66.8177
67.7227
62.0932
49.7171
33.6255
19.0589
11.1877
12.669
22.2486
35.1242
44.934
46.4644
37.8515
21.3117
2.12111
-13.6608
-21.7019
-21.0533
-14.2657
-5.97641
-0.665489
-0.653801
-5.29506
-11.7155
-16.6499
-18.3159
-17.2077
-15.28
-13.9432
-12.0998
-5.5972
11.2048
42.2504
86.5529
136.763
180.666
205.311
202.094
170.507
118.792
61.1215
12.4653
-16.6918
-23.6616
-13.6912
2.90057
15.2431
16.1997
4.76481
-14.2294
-32.7978
-43.6287
-43.3746
-33.9824
-21.5172
-13.0744
-13.2865
-22.1335
-35.1291
-45.7488
-48.8092
-43.0316
-31.4886
-19.794
-13.0944
-13.4945
-19.2086
-25.7227
-28.192
-23.7639
-12.7298
1.85666
15.6858
25.0011
27.9541
25.1
19.0123
13.2409
10.9535
13.6806
20.6222
28.8909
34.7575
35.4692
30.7946
23.4104
17.7459
17.7374
24.6498
36.2166
47.6889
54.3028
53.8049
47.5792
39.7038
34.4779
33.8866
36.5125
38.5399
36.2303
28.3589
17.1244
6.97768
2.06979
3.85283
10.2661
16.9833
19.9683
17.8216
12.5474
8.32122
9.00925
15.8899
26.8655
37.552
43.5582
42.6441
35.6092
25.5611
16.1419
9.79082
6.95653
6.50147
6.82747
6.92299
6.73978
6.84427
7.76759
9.5924
12.0374
14.8726
18.245
22.5853
28.1243
34.3858
40.0962
43.6884
44.1634
41.7889
38.1641
35.5398
35.7292
39.1988
44.8356
50.5095
54.1157
54.5347
52.026
47.9006
43.7124
40.4512
38.1822
36.3016
34.2015
31.8874
30.1047
29.8236
31.3699
33.8118
35.1899
33.7531
29.6973
26.3857
30.02
47.381
82.3122
132.545
188.663
236.218
260.57
252.537
212.367
150.106
82.0825
24.9623
-10.0244
-20.3024
-11.499
6.07484
22.1434
30.2622
29.3128
22.5535
15.1438
11.4912
13.5217
20.3285
29.0085
36.1145
39.0908
37.2129
31.7868
25.5985
21.8238
22.7807
28.9906
38.933
49.6255
57.8137
61.2791
59.7072
54.7488
49.2708
46.1425
47.0916
52.1024
59.5718
67.1127
72.6303
75.1994
75.3688
74.7723
75.2355
77.8089
82.2074
86.9512
90.1468
90.4912
87.9313
83.5804
78.9127
74.7061
70.3983
64.317
54.7307
41.139
25.0091
9.43702
-2.17856
-7.7586
-7.55336
-3.94763
-0.149133
1.50795
0.688707
-1.00878
-1.23781
1.51368
6.87723
12.7005
16.2158
15.5911
10.9649
4.38304
-1.30615
-3.95152
-3.13868
-0.201048
2.76452
4.27274
4.3934
4.69771
7.22411
13.0598
21.3812
29.5652
34.3943
33.7499
27.8799
19.512
12.6881
10.8772
15.3288
24.5106
34.9082
42.7507
45.7603
44.0472
39.7541
35.7173
33.8957
34.3824
35.4635
34.6426
30.0882
21.7886
11.8515
3.75538
0.800742
4.36803
12.7722
21.4079
24.4657
17.8202
1.97337
-16.4581
-25.9352
-14.0587
26.7597
94.431
175.68
249.266
293.182
293.059
248.093
171.701
86.441
15.3715
-26.3359
-35.9288
-22.1057
0.470352
18.2181
23.9216
18.2002
7.21277
-1.59518
-3.31021
2.7542
13.7667
25.5232
34.5908
39.405
40.1198
37.7371
33.2634
27.3728
20.5672
13.4878
7.01712
2.05632
-0.856684
-1.80249
-1.42413
-0.593117
-0.00457118
0.0700362
-0.232896
-0.585818
-0.723992
-0.587521
-0.301356
-0.0495581
0.0521476
0.00787777
-0.0937863
-0.156771
-0.137365
-0.0550631
0.0378724
0.0966662
0.106065
0.0769828
0.0300053
-0.0172955
-0.0519683
-0.0618676
-0.0367478
0.022251
0.0927158
0.133805
0.107612
0.00909423
-0.117498
-0.194635
-0.158948
-0.013719
0.152159
0.20339
0.0437481
-0.301662
-0.668157
-0.828208
-0.634621
-0.147671
0.345833
0.462453
-0.0476055
-1.09378
-2.19481
-2.64346
-1.82303
0.485696
3.97769
7.95363
11.6351
14.4823
16.3308
17.2792
17.4284
16.6778
14.7568
11.5093
7.2564
2.9594
-0.0122566
-0.476933
1.88869
6.208
10.675
13.3994
13.436
11.4288
9.43573
9.90476
14.2622
21.8651
29.9749
34.9227
33.9813
26.9896
16.7702
7.9384
4.55385
7.80654
15.0861
21.1989
21.3767
14.6279
5.54066
3.20502
17.3129
53.0488
107.27
168.127
218.735
243.55
234.615
194.814
136.606
76.8327
30.0921
3.68166
-3.76731
0.212132
6.61664
9.32601
7.09551
2.64857
-0.0982698
1.1667
5.88279
11.3337
14.6073
14.4473
11.8915
9.44399
9.42539
12.5564
17.5818
22.0533
23.7122
21.6386
16.5677
10.3222
4.80169
1.14592
-0.525468
-0.798525
-0.409191
0.157906
0.720357
1.19619
1.42007
1.1904
0.531172
-0.0692616
0.280798
2.42738
6.54396
11.7364
16.2298
18.1698
16.6706
12.515
8.02311
6.03514
8.46736
15.2018
23.9551
31.2749
34.1993
31.7209
25.2732
17.9692
12.9929
12.0102
14.4423
17.9608
19.8802
18.6426
14.5689
9.50731
5.65565
4.29344
5.16791
6.84583
7.74509
7.16398
5.66666
4.62081
5.23127
7.72405
11.2152
14.3346
16.1716
16.8955
17.6213
19.5943
23.2318
27.6706
31.1596
32.0857
30.0036
26.0165
22.2509
20.7299
22.3216
26.3766
31.2285
35.1994
37.4672
38.2959
38.5779
39.0887
39.9967
40.9377
41.5235
41.8383
42.498
44.1985
47.0863
50.4476
53.0028
53.6401
52.0681
48.8804
44.9389
40.5232
34.9715
27.3038
17.6568
8.67969
5.79748
15.6986
43.3564
88.8499
145.632
201.429
241.788
255.041
236.661
191.165
130.71
70.9201
25.6107
2.47383
1.29173
15.149
33.8963
48.3016
53.2129
48.6287
38.5434
28.3655
22.2108
21.2701
23.8315
26.7183
27.2648
24.7878
20.8551
18.3132
19.6626
25.6538
34.8075
44.0499
50.0902
50.8339
46.1694
37.8309
28.5054
20.687
15.8262
14.1053
14.8213
17.0666
20.3053
24.5567
30.1442
37.2129
45.3247
53.3839
59.9499
63.7816
64.3328
61.9518
57.6984
52.8914
48.618
45.4242
43.2687
41.6706
39.9106
37.1897
32.7599
26.1189
17.3136
7.25284
-2.2022
-8.59367
-9.69087
-4.49837
6.04895
19.1527
31.0876
38.6493
40.43
37.2768
31.6928
26.5072
23.527
22.8741
23.2937
23.1579
21.5107
18.5396
15.2639
12.7403
11.3731
10.7992
10.3919
9.98005
10.2119
12.2287
16.7967
23.4643
30.3708
34.9749
35.3882
31.5627
25.5727
20.6993
19.7192
23.3177
29.5554
34.7832
35.5848
30.6966
21.8001
12.6724
7.11813
6.85595
10.6266
15.1126
17.1664
15.9739
13.7041
14.058
19.4716
28.7582
36.962
38.0176
29.0375
13.7419
2.59727
8.8047
41.6319
100.381
172.409
236.811
272.506
267.063
222.039
152.245
79.3186
22.8041
-7.05812
-11.6992
-1.25009
11.6573
17.9253
15.0651
6.43574
-2.16078
-6.23703
-4.73091
0.247797
5.34748
8.15082
8.35365
7.52074
7.85592
10.8516
16.5476
23.6458
30.2402
34.6888
36.2076
34.9995
31.9688
28.2279
24.6409
21.6007
19.1218
17.1773
16.07
16.5733
19.676
25.9914
35.136
45.4921
54.6228
60.2655
61.4583
59.193
56.1597
55.5925
59.7082
68.4853
79.4072
88.3497
91.2513
85.8395
72.6583
54.9527
37.4599
24.6104
18.883
19.9821
25.1687
30.5894
33.0195
31.2396
26.4226
21.3604
18.9274
20.5643
25.5692
31.5497
35.7673
36.6086
34.3586
30.8667
28.343
28.0214
29.4814
30.9968
30.6606
27.5895
22.5033
17.3858
14.4744
15.1787
19.4906
26.1089
33.0925
38.6405
41.6469
41.8985
39.9882
37.0733
34.5463
33.6254
34.902
38.0042
41.6129
43.9714
43.7648
40.9443
36.9717
34.191
34.5287
38.1979
43.2218
46.2297
44.2587
36.6161
25.6559
15.8115
11.2051
13.0988
18.7633
22.7324
20.1064
10.2529
-1.28287
-4.1748
12.1169
52.5598
112.455
177.424
228.012
247.17
227.301
173.662
102.484
34.673
-12.1225
-29.6311
-20.8683
2.56388
26.1762
38.6145
35.5521
20.2231
0.895841
-13.2632
-16.1074
-6.74548
10.5413
28.4236
39.7077
40.2845
30.6925
15.7003
2.11614
-4.21994
-0.926158
10.067
23.6635
34.1536
37.8912
34.7836
27.9287
21.7202
19.5241
22.1774
28.0147
34.2254
38.6201
40.7527
41.832
43.6387
47.2395
52.3267
57.5324
61.4097
63.3704
63.9633
64.3649
65.493
67.3773
69.2012
69.9358
69.0786
66.9588
64.4101
62.0829
59.9364
57.3191
53.6037
48.9064
44.3054
41.2925
40.7358
42.039
43.147
41.5581
35.8433
26.7787
17.3278
11.3432
11.6093
18.2804
28.6012
38.1157
42.7595
40.755
33.35
24.0763
16.9819
14.7802
17.8195
24.2633
31.2241
36.1562
37.8053
36.3684
32.992
29.045
25.6022
23.3325
22.6732
24.0148
27.6698
33.6061
41.1322
48.7912
54.6233
56.7565
54.106
46.8956
36.7727
26.4418
18.8969
16.4607
19.907
27.9578
37.4044
43.9752
43.8473
35.4152
20.678
5.54482
-1.40867
8.34193
39.8271
91.6895
155.18
215.849
257.716
268.606
244.63
191.929
124.789
60.6931
14.2447
-7.60442
-7.10551
6.43689
21.3707
28.7428
25.4732
14.4846
2.14037
-5.43078
-5.21418
1.85932
12.1667
21.6955
27.9896
30.7839
31.2889
30.8767
30.1341
28.8254
26.5924
23.7094
21.2305
20.3644
21.519
23.7451
25.0678
23.5912
18.7094
11.6319
4.83787
0.748029
0.41496
3.03277
6.56058
9.05508
9.8674
9.95663
11.142
14.7905
20.789
27.4639
32.5081
34.3484
33.1114
30.5987
29.2746
30.8501
35.2628
40.608
44.0348
43.1159
36.9948
26.7874
15.1143
5.04687
-1.04675
-2.29783
0.48144
5.24039
9.55845
11.6141
10.8937
8.35058
5.91847
5.55171
8.21616
13.3349
19.0163
23.0019
23.862
21.7831
18.4745
16.2051
16.4961
19.2235
22.6742
24.5483
23.3391
19.2886
14.3604
11.2503
12.0109
17.0754
25.2015
34.3039
42.6367
49.6212
55.8655
62.4116
69.6771
76.7109
81.1981
80.2705
71.7982
55.6174
34.1387
11.9716
-5.46046
-13.9212
-12.2162
-2.99287
8.1584
15.2544
15.1772
10.0603
7.30241
16.6678
45.417
93.6789
152.533
206.208
237.838
236.323
201.111
142.587
77.8653
24.0016
-8.19435
-17.0543
-8.77556
6.81672
21.0162
29.2108
31.1294
28.9963
25.1763
20.77
15.6862
9.66569
3.23078
-2.20819
-5.11727
-4.84688
-2.10816
1.44555
4.25344
5.79581
6.82176
8.71031
12.3914
17.5344
22.5334
25.3091
24.4388
19.9347
13.2216
6.36124
1.01656
-2.22392
-3.8024
-4.53436
-4.82104
-4.27099
-1.9793
2.72916
9.59804
17.2698
23.8113
27.6674
28.5037
27.4539
26.6148
28.0437
32.7591
40.2222
48.5084
55.0507
57.6012
55.0192
47.6151
36.9768
25.3925
15.1026
7.6549
3.58719
2.53138
3.64912
6.1508
9.60641
13.881
18.7709
23.6345
27.3481
28.719
27.1562
23.1643
18.2662
14.2948
12.4189
12.4989
13.214
12.9347
10.8218
7.45504
4.57009
4.04817
6.79365
12.2109
18.5976
24.1657
27.9946
30.2977
31.8841
33.277
34.1852
33.7507
31.3914
27.5712
23.8223
21.8672
22.3767
24.2664
25.1591
22.8599
16.9211
9.17204
2.68061
-0.32357
-0.191061
0.112995
-2.91485
-10.1458
-17.5503
-16.6556
1.83589
42.7221
102.035
166.447
217.303
237.848
220.408
170.06
102.889
39.5316
-3.04674
-17.7713
-8.99785
10.9789
28.4159
34.3424
27.6839
14.2384
2.55833
-0.840766
5.49102
17.9183
30.2876
37.4129
37.5709
32.8561
27.503
25.3176
27.6707
33.022
38.0162
39.3773
35.5283
27.1739
16.7376
7.13922
0.623889
-1.84851
-0.561923
3.38755
8.5648
13.5195
16.9965
18.1686
16.9312
14.1113
11.3474
10.515
12.8591
18.2561
25.0605
30.7293
32.9845
30.9389
25.5849
19.373
15.0953
14.6579
18.3562
24.9529
32.4028
38.7503
42.7189
43.7937
41.9493
37.3719
30.4379
21.934
13.2479
6.21616
2.53614
2.98074
6.87177
12.1971
16.4189
17.6091
15.3204
10.7139
5.86792
2.65495
1.81947
2.76822
4.15584
4.86942
4.77338
4.72571
5.84048
8.47225
11.6244
13.2717
11.5356
6.07681
-1.16866
-6.49653
-6.08596
2.01474
16.6746
34.0045
49.149
58.6089
61.7878
60.8551
59.0024
58.1715
57.7206
54.9613
47.3165
34.7132
20.5057
10.0163
7.30665
12.1224
19.1826
20.8052
11.8302
-5.88723
-22.3721
-23.1947
3.35487
59.0936
132.751
202.984
246.69
248.824
208.984
141.503
69.0545
12.9483
-15.1703
-16.5014
-2.20325
13.463
20.1683
15.3648
3.65697
-7.15801
-10.7678
-5.26125
6.7903
20.4668
31.2219
36.6637
36.7757
32.9861
27.006
20.1724
13.4403
7.6579
3.66116
2.02662
2.71637
5.004
7.86967
10.6604
13.5439
17.3647
22.9039
29.9937
37.1119
41.8451
42.0811
37.2948
29.1534
20.9948
16.3458
17.2086
23.0078
30.7767
36.5251
37.1289
31.8209
22.5782
13.2489
7.85624
8.8732
16.2193
27.3621
38.4041
45.6379
46.9088
42.2691
33.7329
24.3145
16.7899
12.6926
11.9167
13.0256
14.0679
13.5035
10.829
6.65967
2.29352
-0.979446
-2.46522
-2.28504
-1.17355
-0.0215544
0.565096
0.470039
-0.023389
-0.504567
-0.699431
-0.579189
-0.291482
-0.00730652
0.188996
0.299039
0.332309
0.247479
-0.0129531
-0.412846
-0.743837
-0.690184
-0.0497672
1.02072
1.94591
1.99102
0.758879
-1.37976
-3.28331
-3.61623
-1.76553
1.47656
4.04169
3.68133
-0.474286
-6.87842
-11.9416
-11.9558
-5.66238
4.13468
11.2774
9.45416
-3.52749
-22.8383
-37.224
-33.5418
-3.42677
51.2623
117.367
174.87
205.126
199.047
161.157
107.453
58.0897
28.5045
23.3156
35.7451
52.4222
60.7425
54.9185
37.8759
18.5403
6.44361
6.72201
18.0002
33.8713
46.7465
51.7967
48.9641
42.2814
37.2088
37.6069
43.9264
53.3646
61.6562
65.399
63.6961
58.3893
52.9323
50.599
52.952
59.2601
67.0275
73.2655
75.8446
74.3173
69.9213
64.8793
61.4003
60.8476
63.3812
68.1178
73.6268
78.4857
81.6716
82.6954
81.5189
78.3643
73.5271
67.2623
59.7638
51.2261
41.9496
32.4376
23.4217
15.7636
10.2307
7.20702
6.46798
7.15465
8.01917
7.88869
6.16786
3.14161
-0.101602
-2.14149
-1.90843
0.739762
4.84714
8.72062
10.6878
9.90176
6.79201
2.91429
0.246272
0.258328
3.21212
8.03139
12.8039
15.6611
15.6058
12.9031
8.88214
5.28223
3.47027
3.88258
5.90817
8.2264
9.42924
8.66051
6.00593
2.46031
-0.538257
-1.82154
-1.11018
0.820343
2.5989
3.16369
2.5947
2.26799
4.03861
8.77819
15.1726
19.7961
18.9005
11.2946
0.730282
-3.96182
8.16361
44.9252
105.858
179.962
248.095
289.56
290.221
248.465
176.195
94.2905
24.6
-17.9526
-29.7862
-18.0986
3.81858
22.8084
30.7673
26.4788
14.2904
0.935933
-7.71685
-8.67407
-2.16971
9.23125
22.0282
33.0356
40.1745
42.7735
41.4729
37.826
33.6952
30.5934
29.1892
29.1852
29.6418
29.6012
28.6889
27.3588
26.6264
27.4275
29.9734
33.5084
36.671
38.3063
38.2794
37.7691
38.7656
42.9385
50.4597
59.4896
66.758
69.0892
65.1457
56.4299
46.8794
41.1058
42.0863
49.4956
59.61
66.9243
66.7219
57.3137
40.8247
22.1665
6.77049
-1.74023
-2.81322
1.32921
7.19762
11.8397
14.0067
14.2265
13.9743
14.5724
16.462
19.1529
21.7052
23.3336
23.75
23.1101
21.7059
19.674
16.9235
13.3034
8.87324
4.08733
-0.226843
-3.10028
-3.76748
-1.98588
1.8004
6.53595
10.8764
13.6661
14.3883
13.3702
11.6094
10.2686
10.0869
11.0389
12.4508
13.5046
13.7931
13.5312
13.2539
13.2199
13.0054
11.7006
8.6905
4.48982
0.906168
0.143585
3.21343
8.6971
12.977
12.3061
5.85736
-2.06251
-2.42225
14.9372
55.806
116.936
184.995
240.39
264.745
248.751
196.595
124.686
55.079
6.63657
-12.0232
-4.67
15.912
34.7762
41.6307
34.4696
18.7557
3.19365
-5.327
-4.97795
0.950382
6.7506
7.96562
3.94379
-1.98144
-4.57707
0.223724
12.9629
30.2
46.0943
55.1304
54.5846
45.5614
32.2174
19.6935
11.8491
9.86969
12.2826
16.1706
18.8263
18.9788
17.0674
14.5946
13.0558
13.0883
14.2671
15.5634
16.1111
15.784
15.237
15.3928
16.6897
18.5616
19.5186
17.8791
12.8236
5.20072
-2.44304
-6.78935
-5.30153
2.33631
13.7013
24.4633
30.3121
29.0895
22.0107
13.2397
7.91603
9.58611
18.3787
30.9207
42.0673
47.522
45.9277
39.3098
31.6993
26.7923
26.015
28.068
30.1004
29.6957
26.412
21.9578
18.9725
19.2382
22.4729
26.4491
28.34
26.4444
21.2351
15.1169
11.0643
10.9599
14.5875
19.8138
23.7908
24.4588
21.5194
16.4116
11.4065
8.39672
8.055
9.74841
12.1339
13.9994
14.8526
14.9946
15.1673
16.0992
18.2419
21.7543
26.542
32.1273
37.3587
40.3067
38.817
31.8968
21.4576
13.3275
16.3833
39.395
86.4902
153.32
226.241
285.738
313.277
298.818
245.479
168.89
91.2393
32.5899
3.43612
1.82779
16.0862
31.3874
36.754
29.1336
13.0478
-3.31244
-13.0168
-13.69
-7.79003
-0.304579
4.41101
4.78461
2.20198
-0.484172
-0.930182
1.45695
5.56303
9.58407
12.1948
13.1287
12.9531
12.3819
11.7075
10.7367
9.18857
7.16073
5.24945
4.19801
4.33134
5.22744
5.93338
5.64798
4.42997
3.4112
4.27641
8.24847
15.1814
23.3619
30.2267
33.652
33.0941
29.9113
26.6499
25.6649
27.8278
32.0168
35.6485
35.9503
31.3141
22.0831
10.454
-0.391734
-7.50655
-9.25676
-5.89445
0.542278
6.96704
10.415
9.28327
4.17459
-2.08634
-5.44042
-2.31802
8.60429
25.4775
43.7584
58.0042
64.193
61.4461
52.2959
41.3927
33.3606
30.9193
34.1585
41.1435
49.2936
56.6454
62.3568
66.399
68.9128
69.8234
68.9859
66.6558
63.7911
61.8163
61.8944
64.1499
67.3791
69.5007
68.5485
63.6822
55.692
46.7651
39.6458
36.5581
38.2829
43.6803
49.8379
52.9326
49.7416
39.4452
25.0088
13.257
13.0484
31.7753
71.4336
126.147
182.754
224.812
238.672
219.024
171.283
109.557
51.0248
9.30005
-10.1799
-10.7935
-1.4911
8.36936
13.3945
13.7267
13.4625
17.2201
26.9437
40.6234
53.3852
60.1
57.9834
47.862
33.6305
20.378
12.2177
10.8155
15.1101
22.1084
28.2293
30.5991
27.891
20.5739
10.6325
0.902636
-5.81261
-7.64536
-4.32685
2.65904
10.5873
16.5626
18.7411
17.1387
13.5829
10.7731
10.8908
14.4894
20.2715
25.8819
29.2599
29.7597
28.3806
26.9895
27.0297
28.5239
29.9883
29.2991
24.9651
17.0198
7.00843
-2.87564
-10.9372
-16.7069
-20.8653
-24.5125
-28.3243
-32.1498
-35.2535
-36.9553
-37.1736
-36.4865
-35.6836
-35.147
-34.5076
-32.8348
-29.2585
-23.6434
-16.8997
-10.7422
-7.02232
-6.98725
-10.8222
-17.6516
-25.9308
-33.9939
-40.5136
-44.7284
-46.4359
-45.8365
-43.3339
-39.3646
-34.298
-28.4264
-22.0488
-15.6128
-9.82194
-5.57638
-3.66282
-4.24606
-6.40562
-8.06599
-6.57605
0.122579
12.205
27.2652
40.7969
47.8971
45.5232
34.1564
17.8526
2.43704
-7.33651
-10.0994
-8.20833
-5.6939
-4.84479
-3.47062
5.22338
29.5384
74.2351
136.187
203.377
258.328
284.777
274.527
231.148
168.634
105.619
57.9214
32.9147
28.1444
34.3754
41.0839
41.4457
34.5081
23.9868
14.9473
10.5406
10.5741
12.3894
13.1309
11.8121
9.91682
10.3103
15.2851
25.0205
37.3807
49.0942
57.5269
61.9596
63.6519
64.7504
66.778
69.6401
71.709
70.8691
65.8426
56.9961
46.1915
35.8323
27.7117
22.3186
18.925
16.2854
13.4553
10.2423
7.1121
4.73482
3.5403
3.5559
4.53295
6.14655
8.04547
9.72662
10.438
9.36666
6.16291
1.52128
-2.66375
-3.91159
-0.424856
7.61614
17.5753
25.2276
26.7666
20.997
10.4664
0.716789
-2.19554
5.24145
21.9475
42.3813
58.9184
65.3531
59.7825
45.4335
29.0534
17.7228
15.6963
22.7629
34.7667
45.8356
51.1159
48.7419
40.3029
29.845
22.0447
20.3798
25.9487
37.2387
50.8152
62.6671
69.7762
71.3693
69.316
67.3728
69.4357
77.5127
90.4172
103.982
112.867
113.16
104.414
89.9571
75.2326
64.9823
60.8274
60.5774
59.6434
53.7331
41.2967
24.3796
7.49156
-4.76975
-9.96373
-8.73383
-4.07231
0.474898
2.5647
1.86165
-0.353008
-2.31539
-2.88338
-2.0154
-0.508103
0.676983
1.0095
0.583035
-0.105964
-0.556954
-0.559527
-0.235228
0.131252
0.31339
0.267721
0.110583
-0.00131102
0.0116063
0.10997
0.181085
0.1287
-0.05504
-0.278747
-0.406675
-0.347282
-0.124618
0.112359
0.158498
-0.126666
-0.708456
-1.34986
-1.70981
-1.54237
-0.898024
-0.191452
-0.0369167
-0.866341
-2.49082
-3.86349
-3.27312
0.980922
9.64986
21.775
34.5812
44.2701
47.5268
43.1216
32.8003
20.8745
12.5057
11.3644
17.7693
28.2994
37.2074
39.0559
31.3106
15.5727
-3.21536
-19.2122
-28.5103
-30.8843
-29.5667
-29.2416
-33.4119
-42.6048
-54.3559
-64.8656
-71.2719
-73.1744
-72.5548
-72.2372
-73.9143
-77.0077
-79.0895
-77.6112
-71.8606
-63.898
-57.8091
-57.6103
-64.9635
-78.0163
-92.0892
-101.908
-104.208
-99.3149
-90.8302
-83.59
-80.9949
-83.1665
-86.9482
-87.7712
-82.3806
-70.9285
-57.2552
-47.1457
-45.4525
-53.6055
-68.8423
-85.5711
-98.1257
-103.426
-102.13
-97.7123
-94.0628
-93.0119
-93.2034
-90.9649
-82.6884
-67.3718
-47.8513
-29.938
-19.7867
-20.7899
-31.602
-46.4021
-57.4303
-58.6877
-49.026
-32.9971
-18.7833
-13.9024
-20.5842
-33.142
-39.0197
-23.6203
22.8307
99.4006
192.506
279.363
335.88
345.844
307.429
234.02
148.907
76.1472
31.6702
18.4368
27.4637
43.6886
53.5185
50.436
36.3836
18.9546
6.44029
3.51875
9.59438
20.1248
29.689
34.8852
35.5946
34.2899
34.1579
37.2691
43.7325
52.0342
60.0816
66.2203
69.7092
70.5853
69.2181
65.9353
60.9397
54.4769
47.0541
39.5097
32.8634
28.0119
25.4117
24.8855
25.6298
26.4358
26.071
23.7112
19.2687
13.4673
7.59172
2.98343
0.490824
0.137198
1.17765
2.51907
3.27862
3.17848
2.5723
2.11567
2.298
3.12021
4.09676
4.55599
4.0432
2.5941
0.748497
-0.671063
-0.88661
0.536123
3.48974
7.24894
10.5365
11.7778
9.56992
3.28018
-6.46233
-17.6931
-27.6504
-33.8189
-35.0388
-32.0991
-27.4279
-23.9536
-23.6934
-26.8223
-31.7294
-36.0102
-37.801
-36.6767
-33.6326
-30.258
-27.7115
-26.1862
-25.1695
-24.2191
-23.6026
-24.2417
-26.9202
-31.2867
-35.4115
-36.3627
-31.6091
-20.4807
-4.79885
11.766
25.3088
33.408
36.0289
35.1913
33.6945
33.6908
35.8761
39.6038
43.6444
46.9914
49.2297
50.3922
50.6042
49.8995
48.3362
46.2066
43.9983
41.9815
39.7088
35.9804
29.6614
21.1599
13.7135
13.3983
27.2338
59.803
109.855
168.769
222.157
254.431
254.635
220.991
162.029
93.6371
33.2812
-6.14251
-20.2141
-13.2312
4.92117
23.5213
35.1445
37.5533
33.0011
25.8419
19.9294
17.0487
16.8236
17.6879
18.0744
17.0936
14.4837
10.1382
3.74155
-5.12527
-16.4548
-29.2646
-41.5112
-50.6894
-54.9125
-53.9265
-49.4718
-44.7083
-42.9011
-45.9704
-53.6076
-63.399
-71.9011
-76.149
-74.882
-68.9435
-60.7435
-53.1344
-48.2914
-47.1069
-49.2729
-53.8445
-59.8716
-66.7454
-74.1609
-81.8639
-89.4562
-96.4312
-102.395
-107.266
-111.269
-114.711
-117.726
-120.236
-122.211
-124.062
-126.798
-131.69
-139.449
-149.359
-158.955
-164.666
-163.304
-153.765
-138.013
-120.69
-107.354
-102.086
-105.613
-114.91
-124.521
-128.992
-125.228
-113.663
-97.7204
-81.9554
-69.8671
-62.485
-58.3367
-54.6464
-48.994
-40.5145
-30.0773
-19.5094
-10.4464
-3.52867
1.64136
5.87548
9.61205
12.5259
13.7968
12.84
9.98501
6.60391
4.53697
5.11573
8.37098
12.9432
16.8167
18.4986
17.9564
16.714
16.9642
20.1483
25.8411
31.6964
34.6548
32.8447
27.0727
20.8548
18.6693
23.189
33.0686
42.871
45.7382
37.8406
22.3216
10.2174
17.0381
55.8835
130.052
228.885
329.464
404.123
430.856
402.046
327.535
230.578
138.572
72.7871
41.599
39.8423
53.8265
69.0049
76.399
74.9962
69.6942
66.6357
68.8294
74.3853
77.9936
74.4503
62.0435
43.8739
26.4403
16.3215
16.7566
25.9113
37.7044
44.7625
42.0249
29.2356
11.1215
-4.8142
-11.8179
-7.05214
7.08751
24.107
36.4364
38.9005
31.01
17.0373
3.90472
-2.06691
1.98954
14.3203
29.5112
41.0208
44.0543
37.4865
24.0735
9.0128
-2.37691
-6.79161
-4.02681
3.31407
11.2068
15.9942
15.8041
11.0656
4.02741
-2.397
-5.87795
-5.44907
-1.52671
4.72659
12.2596
20.683
30.1895
40.9206
52.2253
62.3705
69.0156
70.2934
65.9058
57.5459
48.2859
41.1606
37.6884
37.168
37.1876
35.0937
29.5934
21.5645
13.5982
8.53778
7.86799
10.8951
15.1815
17.9547
17.6457
14.6603
10.9715
8.83206
9.41307
12.1752
15.3003
16.8599
15.9726
13.2566
10.349
8.83914
9.29445
10.9584
12.2594
11.7767
9.06747
4.88399
0.708356
-2.07147
-2.84793
-1.98268
-0.463202
0.705441
1.0006
0.523485
-0.223284
-0.722448
-0.741191
-0.392732
0.020532
0.239756
0.200769
0.0274801
-0.0972795
-0.0778228
0.0325848
0.089789
-0.00918906
-0.215633
-0.326466
-0.111382
0.495263
1.26375
1.71632
1.37751
0.114321
-1.64999
-3.04787
-3.237
-2.01032
-0.152925
0.797773
-0.586373
-4.55858
-9.63125
-13.0835
-12.5302
-7.77242
-1.68673
0.834017
-4.1345
-15.9611
-27.4038
-25.8921
1.57734
61.7136
149.601
247.868
331.579
377.261
372.22
319.808
238.092
152.463
85.6273
49.5474
42.7595
53.6775
67.6304
73.8793
69.4037
58.3015
47.9617
44.5062
49.8283
61.26
73.3948
80.7151
79.7192
69.8907
53.5556
34.9997
19.1921
10.329
10.4479
18.5435
30.6911
41.4048
45.8475
41.9135
31.0867
17.5379
5.90578
-0.974529
-3.05808
-2.23313
-0.251696
3.08694
10.1402
23.6922
44.307
68.5452
89.4596
99.4481
94.0376
74.4466
47.3408
21.7622
4.85805
-1.23959
0.317653
3.72297
4.40993
1.88211
-0.17714
3.47463
15.9041
35.4259
55.7779
69.0431
69.7313
57.7674
38.7326
21.207
12.6144
15.74
27.6865
41.7218
50.9713
51.9985
46.4509
40.0051
39.2565
48.2235
66.2737
88.4776
108.098
119.826
122.057
117.095
109.372
102.829
99.0118
96.849
94.0365
88.9319
81.6586
73.7393
66.6685
60.6126
54.3533
46.6747
38.2361
32.4194
34.1416
46.9714
70.2041
97.912
121.019
131.631
127.288
112.597
96.9897
89.6423
94.3117
107.088
118.479
118.766
103.664
77.0464
49.1764
31.3756
30.1116
43.7685
63.8596
79.9718
85.7163
82.4756
78.9739
86.9145
114.909
163.673
224.713
282.989
322.238
330.65
304.692
249.895
178.704
106.514
47.3567
10.5339
-1.05394
9.28199
33.7633
62.8172
87.877
103.5
108.2
103.834
93.9336
81.7965
69.2567
56.6417
43.781
31.3103
21.3395
16.927
20.5485
32.4206
49.7234
67.3184
79.7182
83.3269
77.7728
65.6467
50.8489
36.534
23.8533
12.203
0.77375
-9.6081
-15.5902
-12.0962
5.39415
38.1961
82.8294
131.466
174.388
203.408
214.686
209.676
193.882
174.171
156.037
142.107
132.357
125.551
120.803
118.269
118.658
122.113
127.401
132.152
134.102
132.561
129.092
126.764
128.284
134.025
141.176
144.659
139.493
123.422
98.4473
70.4165
46.8689
34.1645
35.2537
49.006
71.1675
96.2246
119.147
136.283
145.329
144.896
134.347
114.263
87.2683
58.5315
35.2107
24.6164
31.5932
56.1885
92.7538
131.121
159.645
169.091
155.92
123.74
82.3365
44.6093
22.4629
23.0576
46.6519
86.7147
132.219
171.337
195.312
201.262
193.022
179.766
172.884
182.121
212.225
261.169
320.475
377.525
419.103
435.066
421.044
379.379
318.098
248.329
181.047
124.235
81.3361
51.4075
30.7275
15.0832
1.7518
-9.61072
-17.4352
-19.6954
-15.5569
-6.36805
4.51424
12.9952
16.0122
12.9645
6.11252
-0.283189
-1.75167
4.41959
17.8819
35.1723
50.9796
60.2324
60.1404
51.2996
37.356
23.367
13.6169
9.93794
11.3547
15.1883
18.96
21.9621
25.5361
31.8657
42.0385
54.671
66.1341
72.4474
71.789
66.0204
60.0788
59.3442
66.4105
79.2134
91.7907
97.4096
92.3213
77.9394
60.1206
45.9589
40.0036
42.1462
48.3618
53.7031
55.5715
55.1821
56.3579
62.5309
73.9761
87.1387
96.5555
98.2045
92.1907
83.0531
77.4045
80.208
91.8
107.35
119.095
120.183
108.158
86.3558
62.5845
45.7792
42.2375
53.1153
74.2017
97.9289
116.623
125.536
124.385
116.843
108.34
103.298
103.154
106.112
108.741
108.615
106.588
107.469
118.525
146.328
193.265
255.301
322.13
379.859
415.368
420.739
396.105
349.801
295.674
248.449
218.793
209.876
216.752
228.831
234.476
225.886
202.203
169.512
137.751
115.956
108.078
111.342
117.919
119.056
109.579
90.5384
68.6967
53.1741
50.9866
63.7167
86.9023
112.284
131.601
139.925
136.927
125.698
110.104
92.3864
72.4148
48.8972
21.6028
-7.00377
-31.9594
-47.9198
-52.0231
-45.7415
-34.4498
-24.7622
-21.0622
-23.2297
-26.9434
-26.4352
-18.0767
-2.61735
15.3364
30.3373
39.7675
45.8386
54.5411
72.0129
100.416
135.801
169.316
191.178
195.188
181.313
155.048
124.18
95.0275
70.3156
49.625
31.6411
16.3775
5.77837
2.4039
7.33506
19
33.9493
49.1664
64.3046
82.1324
106.577
139.361
177.32
212.272
233.967
234.832
214.127
179.254
143.354
120.094
117.952
136.528
166.542
193.597
204.186
191.459
158.328
116.508
81.7452
67.1738
77.6234
107.45
142.947
168.325
172.521
153.712
119.498
82.8713
56.1365
45.7788
50.5958
63.5445
75.8816
81.2473
77.7675
67.6176
54.8868
43.2451
34.5995
29.0378
25.557
22.8399
19.6733
15.1054
8.67372
0.831984
-6.70731
-11.2111
-9.99435
-1.96807
11.2095
25.265
34.9741
36.6557
30.1282
18.8885
8.22015
2.20113
1.38066
2.66017
1.6752
-3.59664
-10.2293
-10.6435
3.84314
37.8022
87.6332
141.173
181.731
194.968
175.381
129.192
72.0731
22.7104
-4.79085
-6.1614
12.3637
37.9094
57.1894
62.0423
51.9
32.5635
12.4809
-1.30882
-5.66265
-1.49982
7.80451
18.5183
27.9834
34.9386
39.0678
40.4535
39.4087
36.6675
33.5398
31.664
32.352
35.9176
41.4715
47.3757
52.0874
54.8334
55.6825
55.0357
53.0019
49.2271
43.3854
35.9864
28.8062
24.4249
24.9581
30.7196
39.7451
48.6664
54.5765
56.8278
57.6403
61.0546
70.759
88.0208
110.909
135.224
156.535
172.113
181.675
186.662
188.664
188.104
184.008
174.969
160.608
142.558
124.287
109.822
102.05
101.522
106.345
113.178
118.786
121.385
121.212
120.127
120.527
124.043
130.586
138.121
143.29
142.702
134.417
118.997
99.5483
80.585
66.0572
57.4369
52.9039
48.2954
39.6286
26.071
11.7389
5.02558
15.2749
48.0304
101.068
163.363
217.954
247.839
242.521
202.291
138.326
68.4707
10.5716
-23.7646
-32.4151
-21.9224
-3.41791
12.5605
19.9892
18.5494
12.0867
5.59603
2.46553
3.2749
6.43892
9.98098
13.2247
17.3877
24.7784
37.1158
53.988
72.3981
87.7708
96.008
95.5872
88.5972
80.0675
75.7699
79.465
90.9154
105.712
117.124
119.199
109.665
91.225
70.5502
55.3928
51.1681
58.6187
73.6426
89.2893
98.8856
98.7672
89.4096
74.6507
59.6619
48.8289
44.5201
47.0396
55.3528
67.8649
82.767
97.9846
111.161
120.068
123.4
121.453
116.064
109.62
103.616
97.7054
90.0199
78.7631
64.1646
49.4527
39.9397
40.433
52.3304
72.1626
92.6676
106.054
107.76
98.6149
84.1357
71.3269
64.8276
64.6309
66.6702
65.8238
59.4055
48.8993
38.7932
33.2251
32.6483
32.8759
27.501
12.5497
-9.41616
-28.5796
-31.6594
-8.72672
40.4501
104.189
162.508
195.191
190.426
149.674
86.3787
19.3808
-35.3236
-70.1972
-86.6047
-90.6541
-87.5496
-78.0967
-59.2944
-28.1805
13.9531
59.9612
99.0569
121.567
123.429
107.877
83.5572
60.3395
45.236
40.3908
43.6794
50.976
58.5136
64.1681
67.4458
68.735
68.5679
67.2954
65.1166
62.1959
58.7004
54.7953
50.7037
46.808
43.6278
41.5434
40.3742
39.1692
36.5494
31.5955
24.7895
18.2882
15.0851
17.3064
24.5716
33.5258
39.1117
37.1376
26.8193
11.7949
-1.17137
-5.32964
2.62749
20.6793
42.2261
59.1843
65.8647
61.612
50.8057
40.2168
35.1346
36.3693
39.8123
38.9023
28.7844
9.96797
-10.5797
-21.7608
-13.2501
19.2321
70.8129
128.172
174.005
193.467
179.897
137.417
79.3558
23.2358
-15.5269
-28.6704
-17.0319
11.0302
43.6891
70.2656
84.5388
85.7152
77.1698
63.9886
50.6345
39.6999
31.9543
27.1971
25.1226
25.614
28.4096
32.5862
36.4512
38.1476
36.736
33.0838
29.8732
30.4938
37.2694
49.9642
65.4784
79.0524
86.4559
86.0379
79.5332
71.1733
65.5776
65.5569
70.9732
79.1593
86.5212
90.3375
89.7885
85.8253
80.2154
74.5195
69.616
65.8691
63.5283
62.8337
63.6393
64.8822
64.494
60.1308
50.5056
36.5608
21.6393
10.3279
6.45543
11.3144
23.1122
37.9629
51.8151
62.1767
68.6795
72.315
74.0333
73.7501
70.4298
63.0692
51.7154
37.6138
22.2678
6.11367
-12.0119
-33.8488
-59.4924
-85.4407
-104.634
-109.251
-95.2609
-66.2562
-33.8498
-13.4779
-16.9708
-45.4745
-86.7559
-119.107
-120.734
-80.4165
-4.10149
86.1939
161.083
196.143
181.991
127.371
54.039
-13.5859
-58.6808
-77.2968
-76.7916
-69.2642
-64.2032
-64.3704
-66.5482
-65.7581
-59.7277
-50.6958
-43.6891
-42.777
-48.0017
-55.0734
-58.0086
-52.9769
-40.8894
-27.0964
-18.364
-18.9315
-27.9572
-39.8046
-46.9851
-44.1059
-30.6731
-11.2727
6.92939
18.0309
20.566
18.3497
18.5232
27.7643
48.6049
77.8148
107.806
130.437
141.253
141.834
138.843
140.16
150.191
167.048
183.362
190.421
183.336
164.203
141.314
124.748
120.88
129.032
142.222
151.541
151.461
142.844
131.897
125.834
128.063
135.966
142.686
141.774
131.764
117.749
108.908
113.392
133.594
164.582
196.559
219.9
229.863
228.427
222.456
219.49
223.673
233.988
245.458
252.224
250.509
239.839
222.18
200.029
175.02
148.107
121.089
98.174
86.0251
91.5994
118.511
163.811
217.191
263.528
287.993
281.522
244.196
185.012
118.323
58.7156
16.5862
-3.93827
-4.50711
9.57451
31.7091
55.6731
76.4694
90.8093
97.6098
98.3842
96.9708
98.156
105.429
118.893
134.621
146.159
147.69
137.292
118.476
99.0098
87.4826
89.3229
104.293
126.693
148.074
161.008
162.078
152.797
138.316
124.814
116.872
115.948
120.366
126.564
130.918
131.355
128.132
123.508
120.456
120.985
124.91
129.782
132.18
129.803
123.21
116.075
113.516
119.215
132.881
149.639
161.971
163.364
151.763
130.872
108.482
92.6692
87.9262
93.3058
103.522
112.251
115.675
114.307
112.182
114.085
122.494
135.965
149.742
158.091
157.053
146.214
128.792
110.215
95.9895
89.7295
91.984
100.074
108.904
112.569
106.462
89.3484
64.6859
40.3978
26.7338
32.5925
61.5364
109.194
163.466
207.934
227.475
213.993
169.891
107.693
45.7397
1.53977
-14.6177
-3.22485
25.1352
54.4033
69.6298
62.7853
35.4437
-2.60652
-37.9751
-59.2893
-61.2992
-45.8258
-19.5322
9.96838
37.4779
61.3878
82.3919
100.94
115.326
121.839
117.002
100.55
77.1201
55.3097
44.2298
49.2464
69.202
96.7236
121.58
135.404
135.371
125.029
112.019
104.043
105.22
114.573
127.131
136.77
139.176
133.542
122.421
110.171
100.945
97.1554
98.8823
104.19
109.992
113.082
111.056
102.947
89.4693
72.7679
55.7136
40.9363
29.957
22.7941
18.2306
14.6138
10.7874
6.68183
3.26693
1.90987
3.49928
7.81974
13.5278
18.7558
22.0249
22.9617
22.403
21.8047
22.2808
23.8656
25.5106
25.9112
24.6898
23.1078
23.6139
28.2053
36.4396
44.4641
46.1475
36.3111
14.6488
-11.9324
-30.4688
-26.8923
7.06939
68.37
141.655
204.011
233.794
219.641
165.382
88.4369
12.3979
-42.6556
-67.5784
-66.0988
-50.9291
-36.5556
-32.5641
-40.6163
-55.9305
-71.6902
-83.5211
-91.5836
-99.5024
-111.227
-127.934
-146.786
-162.142
-168.35
-162.504
-145.723
-122.404
-98.0089
-76.5995
-59.3205
-44.4563
-28.8791
-10.0942
12.1163
35.2024
54.7161
66.151
66.9381
57.702
42.1832
25.805
13.4825
7.65377
7.45869
9.48869
9.79068
6.18188
-0.257343
-5.2833
-3.20122
10.5636
37.2028
73.5938
113.113
147.831
171.172
179.972
175.208
161.237
143.932
128.49
117.707
111.336
106.712
100.392
90.1354
76.3765
62.4673
53.4389
53.7058
64.7003
83.5931
103.849
117.534
118.422
104.489
78.6676
47.5464
18.7354
-1.82821
-11.4512
-10.6871
-2.19229
10.662
24.678
37.093
45.6806
49.2608
48.7115
47.8578
53.2418
72.1319
109.143
162.915
224.72
280.234
314.194
316.119
284.52
227.571
159.896
96.9494
49.591
21.2033
8.30931
3.88802
1.40186
-2.4849
-7.5174
-11.4307
-12.1722
-9.3577
-4.27282
1.27211
6.27076
11.0972
16.9997
24.9341
34.5777
44.2236
51.6703
55.5781
56.4418
56.5256
58.6868
64.664
73.7505
82.6353
86.6332
81.8175
67.0781
45.0909
21.6393
3.47899
-4.3717
-0.71612
11.3256
25.684
35.9948
38.3556
32.9292
23.6603
16.2558
15.4084
22.6043
35.5602
49.5186
59.6899
63.5593
61.8627
57.7639
54.743
54.4237
55.6145
55.1694
50.2326
40.5743
29.5712
23.048
26.3814
41.3294
64.3754
87.7187
102.682
103.944
92.4131
75.1034
61.8791
60.5916
73.0761
94.1324
114.108
123.812
119.22
103.49
85.2181
73.8243
74.5114
85.4595
98.7452
104.514
96.2425
74.3679
46.4522
23.8097
16.3059
27.8673
54.7825
87.4311
114.425
127.125
122.525
103.505
76.7304
49.5306
27.2689
12.1974
3.8873
0.564829
0.434
2.34606
5.72319
10.0997
14.7668
18.7944
21.3647
22.122
21.2722
19.3837
17.0687
14.7923
12.9157
11.8556
12.1166
14.0423
17.3913
21.0793
23.4423
23.093
20.0069
16.1683
15.1816
20.7539
34.6429
55.1433
77.1064
93.7988
99.915
94.3058
80.9281
67.3056
61.0527
66.1072
80.6221
97.7318
108.966
108.661
97.0972
80.6389
68.6827
68.8749
83.0487
106.026
127.988
139.257
135.059
117.808
95.7394
78.6191
72.786
78.1098
88.4032
94.9844
91.4323
76.9985
56.9283
39.634
32.3363
37.5237
52.032
69.0518
81.7882
86.6963
84.5998
79.295
74.6897
72.2955
70.5736
66.4401
57.8831
45.9342
34.5951
28.5749
30.1162
36.933
42.8446
41.2194
29.6038
12.9075
2.91839
13.6602
54.3675
123.422
206.542
280.728
322.687
318.189
268.097
188.254
103.201
36.5682
2.42712
1.25496
21.8515
47.7343
64.6675
65.8746
53.0283
33.3654
15.0313
3.20927
-1.3043
-0.987277
0.834937
2.09214
2.6651
3.63404
5.89816
9.20045
12.1492
13.099
11.2201
7.04437
2.17843
-1.58137
-3.16253
-2.63874
-0.991201
0.559873
1.21625
0.897321
0.0843487
-0.601175
-0.788146
-0.501444
-0.0390766
0.279821
0.313136
0.133219
-0.0792218
-0.181989
-0.153707
-0.0713703
-0.0214896
-0.0226795
-0.0185281
0.0583454
0.20533
0.321803
0.268689
-0.0148754
-0.421154
-0.693777
-0.578775
-0.0302391
0.673578
1.02641
0.602302
-0.587392
-1.94465
-2.52846
-1.64245
0.556301
2.87065
3.57427
1.47614
-3.04326
-7.75237
-9.44873
-5.71412
3.39806
14.8524
23.8635
26.4058
21.6223
12.5901
4.73052
2.58025
6.82523
13.6034
16.8885
12.8573
3.65969
-2.03026
7.3172
39.6659
93.6054
156.625
209.026
232.025
216.217
166.132
98.471
34.8434
-7.42819
-21.9547
-14.3595
2.28451
14.9024
16.7628
9.64406
1.18317
-0.654907
7.31447
21.6229
34.3704
38.0922
30.407
15.765
3.25923
1.65815
14.386
37.2696
60.4153
73.3285
70.5578
54.7578
35.3955
23.7073
26.6354
43.1232
64.8897
81.2867
85.4899
78.4593
68.3545
65.7128
77.1784
101.436
129.725
150.623
156.333
146.834
129.599
115.166
111.214
118.533
131.015
139.385
136.351
120.213
95.1677
68.5304
46.7757
32.6873
24.9384
19.8727
14.0894
6.27898
-2.48815
-9.76723
-13.1425
-11.1931
-3.74473
8.32146
23.2859
38.7001
51.6387
59.4335
60.8831
57.379
53.0867
53.6083
63.3865
83.0335
108.156
130.713
142.646
140.108
125.964
108.874
98.9998
102.356
116.933
133.092
138.578
125.851
97.7547
68.0158
55.5502
74.9677
128.025
200.734
268.159
305.002
296.921
246.985
174.07
104.058
58.3205
45.1478
57.9837
80.6866
96.5086
95.978
79.987
57.2964
38.6241
30.917
34.7266
45.4711
57.1354
65.8769
71.502
76.3548
82.7612
90.8849
98.3747
101.931
99.7013
92.9444
85.8684
83.6638
89.8026
104.11
122.698
139.827
150.724
153.849
151.425
147.954
147.551
151.556
157.728
161.481
158.491
147.248
130.136
112.409
99.5827
94.6032
96.3229
100.1
100.238
92.9964
78.6124
61.2849
47.127
41.1328
44.6915
54.8948
65.9731
72.1379
70.4245
62.1487
52.2749
47.0099
50.7709
63.9528
82.514
99.5408
108.048
103.767
86.7374
61.1404
33.5607
10.5017
-3.84597
-8.81266
-7.14507
-3.78116
-4.01351
-11.6611
-27.8188
-50.5888
-75.9219
-99.3208
-117.75
-130.866
-140.809
-150.429
-160.654
-168.425
-166.654
-146.794
-103.261
-37.6733
39.4737
111.104
159.37
172.635
150.409
103.822
51.2164
10.8257
-6.13672
1.0781
24.0465
50.1538
68.5851
74.4819
69.6669
60.2166
52.611
50.5472
53.7619
58.9505
61.8683
59.3912
50.6897
37.3176
22.5052
10.0884
3.40069
4.33244
12.7547
26.5355
42.2766
56.5942
67.4121
74.5952
79.5351
83.9067
88.3738
92.1325
93.6797
92.3657
89.6603
89.1069
94.7046
108.496
128.78
150.167
165.692
169.992
161.904
145.083
126.318
112.449
107.472
111.206
119.965
128.671
133.194
131.865
125.688
117.481
110.564
107.562
109.628
116.114
124.651
131.661
133.333
126.958
112.249
92.0679
72.0293
58.8857
58.1327
71.7695
97.2018
127.873
155.483
172.938
176.848
168.529
153.16
137.475
127.021
124.104
127.192
131.907
133.042
126.748
112.07
91.3722
69.672
53.1991
47.6332
56.4156
79.4709
112.658
148.245
176.586
188.787
179.704
150.169
107.363
62.8181
28.4847
12.3171
15.2226
30.8311
48.3404
57.2717
52.0153
34.0869
11.0774
-7.14269
-13.0988
-5.0328
12.6259
31.685
44.1614
45.8055
37.571
24.5654
13.2737
8.57641
11.9646
21.5663
33.6186
44.3925
51.5689
54.5745
54.0477
51.0239
46.4081
40.9362
35.4095
30.8009
27.9882
27.23
27.7895
28.1052
26.5779
22.5972
17.1734
12.682
11.725
15.6837
23.8054
33.431
41.3189
45.3435
45.5606
43.9689
43.0728
44.1186
46.1311
46.4329
42.4186
33.5337
22.1981
12.9804
10.3595
16.278
28.8799
43.1839
53.3744
55.5036
49.2189
37.7165
26.1041
19.1284
19.3973
26.7731
38.9074
52.3822
63.8581
70.9046
72.5057
69.3058
63.5165
58.265
56.3047
58.4609
62.6505
64.3649
58.9049
44.5939
25.2997
10.5026
12.1509
39.2322
92.4813
162.019
229.589
274.911
283.543
252.734
192.553
121.734
60.1728
21.4613
8.69272
15.0711
28.5535
37.9994
37.8913
29.686
19.652
14.7043
18.4976
29.644
42.69
51.0968
50.577
41.1223
26.827
13.748
6.97373
8.37389
16.0697
25.7459
33.0121
35.558
34.0529
31.4598
31.2714
35.6691
44.5422
55.7504
66.3351
73.9468
77.7688
78.5924
78.1728
78.2916
79.9713
83.0982
86.4995
88.3947
87.0979
81.8085
73.2396
63.765
56.8401
55.734
62.0136
74.4941
89.2989
101.191
105.686
100.982
88.7701
73.5207
60.5885
54.0517
55.2467
62.5373
72.2146
79.9631
82.2457
77.2143
65.084
48.0906
30.1008
15.8264
9.59514
13.8583
27.9455
47.7432
66.7625
78.4696
79.0458
69.3237
54.8173
43.5417
42.3852
53.6326
73.3761
92.8357
102.29
95.9843
75.7106
51.1231
36.257
43.4926
77.5726
132.477
192.813
239.352
256.413
237.862
189.168
124.728
61.906
14.5632
-11.1035
-16.9634
-10.0317
1.86347
13.561
23.7353
33.7039
45.0329
57.5166
68.6386
74.6524
72.5257
61.6243
44.2674
24.9397
8.6029
-1.08808
-2.91553
1.80722
10.0929
18.6413
25.1215
28.8999
31.0039
33.4283
38.1246
46.1038
56.9939
69.1906
80.5009
88.9968
93.7362
95.0666
94.3928
93.4933
93.6561
95.0063
96.3552
95.7064
91.2545
82.4337
70.4737
58.0925
48.3657
43.2663
42.6207
44.0829
44.2414
40.358
31.8624
20.7989
10.9501
6.05005
7.98687
15.8963
26.5845
36.0336
41.2153
41.3292
37.9188
33.8991
32.0525
33.7615
38.5748
44.7561
50.4582
54.8487
58.5348
63.0055
69.3695
77.1334
83.8542
86.0899
81.3137
69.7447
54.8691
42.0019
35.3757
35.3173
37.3659
34.3436
20.726
-2.92166
-28.161
-41.1757
-28.924
13.8692
80.54
153.652
211.38
236.252
222.106
175.959
114.128
54.7879
10.7526
-14.1949
-24.2672
-27.2852
-29.7845
-34.2251
-39.308
-42.5004
-42.7907
-41.9139
-43.4818
-50.778
-64.6544
-82.723
-100.182
-111.734
-113.642
-105.075
-88.3602
-68.2229
-50.3128
-39.4626
-38.121
-45.4384
-57.4098
-68.202
-72.3197
-66.7923
-52.3981
-33.2712
-14.9825
-1.97327
4.39846
6.21997
7.64232
12.5279
22.4066
35.8209
49.3492
59.6652
65.4329
67.9651
70.2855
75.1484
83.1571
92.0918
97.9056
96.933
88.1578
74.2809
60.8953
54.046
57.331
70.0235
87.2545
102.271
109.693
108.127
100.755
93.564
92.135
98.6806
110.919
123.371
130.355
129.034
120.873
110.749
104.26
104.708
111.362
119.847
124.381
120.623
107.707
88.5149
68.1678
51.5567
41.1193
35.8953
32.2873
26.2014
15.6319
2.49021
-7.30705
-5.82761
13.3759
51.6329
103.087
155.453
193.731
205.63
186.473
141.383
83.6149
29.6129
-7.08943
-20.4918
-13.347
5.2934
24.7697
37.3856
40.8147
37.591
32.4708
29.3997
29.7294
32.3588
35.2632
37.1528
38.1363
39.1047
40.4928
41.4934
40.4432
36.2007
29.5357
23.4012
21.6192
26.5769
37.3195
49.3629
56.6159
54.5195
42.677
25.4225
9.89317
2.59773
6.33864
19.1302
35.5845
49.8316
58.243
60.5026
58.679
55.1876
51.0967
45.8369
38.3261
28.5478
18.3561
10.8607
8.75096
12.6517
20.5966
28.9749
34.3673
35.1539
31.9833
26.9567
22.1884
18.7088
16.3343
14.3939
12.6206
11.4578
11.5395
12.779
13.8773
12.836
8.36511
1.36064
-4.61786
-4.49385
5.85455
26.9757
54.5515
80.3801
95.4642
93.8857
75.601
46.6833
16.7356
-5.38573
-15.4756
-15.5523
-12.2421
-12.7309
-20.3227
-31.9323
-38.9398
-31.1663
-2.1365
46.9175
106.308
160.867
195.376
200.075
173.957
124.631
65.128
9.25947
-32.5032
-55.1775
-59.1121
-48.2168
-27.7859
-2.94729
21.8794
42.8392
56.5078
60.3132
53.5155
38.1561
19.1419
2.94405
-4.84466
-2.04654
8.84505
21.6128
29.279
27.7011
17.8537
5.37147
-2.62586
-1.79366
6.5374
15.6856
17.2661
6.2748
-15.3055
-38.6394
-52.139
-47.4489
-24.0349
10.2433
42.9982
63.557
68.1891
61.5198
53.4862
53.652
66.0538
87.2914
108.651
120.836
118.608
102.973
80.0598
57.6973
41.72
33.8854
32.1494
32.7116
32.4345
30.3131
27.4145
25.6234
26.106
28.4092
30.6516
30.6267
27.1706
21.0336
14.7589
11.5705
13.7743
21.453
32.1476
41.7697
46.3924
44.0961
35.9778
25.8095
18.4868
17.9881
25.7605
40.1789
57.1759
71.642
79.01
76.5796
64.3987
45.6525
26.4358
14.6611
17.9576
40.879
82.3682
134.781
185.443
220.656
230.749
213.949
177.124
132.837
93.9922
68.6284
57.3622
54.5978
52.599
46.0598
34.6912
22.6196
15.2836
15.8842
23.5285
34.0104
42.5001
46.3089
46.0044
44.339
43.9135
45.273
46.7467
46.0835
42.6543
38.5525
37.636
42.9665
54.2933
67.3823
75.9532
75.3424
65.7896
53.2417
46.8657
54.3552
77.4895
110.444
141.962
160.444
159.429
140.675
113.311
89.5085
78.895
84.4216
101.575
121.067
133.469
133.483
121.924
104.784
90.0932
84.2514
89.4404
103.079
119.252
131.27
134.192
126.389
109.736
88.5851
68.0748
52.4413
43.8648
42.1231
45.0248
49.3641
52.0292
50.9101
45.3706
36.2123
25.2212
14.4944
5.78238
0.0443117
-2.68006
-3.08987
-2.24274
-1.13668
-0.407999
-0.233941
-0.435514
-0.694867
-0.767652
-0.595477
-0.289071
-0.0222039
0.0859942
0.0320254
-0.0916071
-0.170538
-0.143869
-0.0347537
0.07677
0.115353
0.0640868
-0.0241224
-0.0643729
-0.0023768
0.139276
0.264615
0.261717
0.0828766
-0.204232
-0.436346
-0.447661
-0.188609
0.206163
0.460932
0.312203
-0.304537
-1.15385
-1.77704
-1.74281
-0.95111
0.196884
0.912284
0.42365
-1.49684
-4.17147
-6.07395
-5.37469
-0.785262
7.68559
18.4685
28.8692
36.0787
38.3289
35.6571
29.8983
23.884
20.2139
20.1805
23.35
27.9764
32.0067
34.1553
34.513
34.418
35.6964
39.68
46.4887
54.8952
62.8032
68.1037
69.5508
67.3294
63.1205
59.6244
59.6529
65.036
75.7064
89.3656
102.019
109.36
108.55
99.6309
85.8004
72.2311
63.8258
62.9394
68.2377
75.3625
79.1411
76.2185
66.7227
54.0922
43.2214
38.0112
39.6844
46.6791
55.9314
64.551
70.8045
73.9693
73.5318
68.6992
58.8932
45.0061
30.3712
20.3158
20.0005
31.5154
52.0311
74.5005
91.0177
97.2275
95.2531
93.1599
100.811
124.091
160.608
199.401
225.141
224.927
194.37
139.987
76.7971
22.3301
-10.0892
-15.8495
0.327144
27.4319
53.1348
68.4086
70.0908
60.8049
46.7863
34.8186
29.5439
32.0272
39.8647
48.577
53.6391
52.3618
44.9438
34.3521
25.1287
21.6214
26.3298
38.974
56.5831
74.5098
87.9717
93.5951
90.4872
80.5315
67.8164
57.3365
53.3225
57.7269
69.4226
84.4957
97.6315
104.128
101.743
91.576
77.5847
64.9252
57.8539
58.1193
64.5139
73.6843
81.7143
85.6888
84.56
79.0632
70.9249
61.8964
53.1222
45.0634
37.8496
31.7163
27.2046
25.0002
25.5369
28.6276
33.3643
38.3638
42.2439
44.0995
43.7616
41.7492
38.9812
36.419
34.8034
34.5483
35.7388
38.1207
41.036
43.3849
43.7903
41.0839
35.009
26.7591
18.8711
14.2168
14.3738
18.2145
21.7457
19.7749
8.98493
-9.03779
-26.6891
-32.3729
-15.3514
28.5838
93.4777
163.848
219.881
245.137
233.272
190.56
132.965
79.1831
42.9788
28.396
29.8065
36.2914
37.7872
29.8401
14.8605
-0.234617
-8.29464
-5.70801
6.13744
22.0841
36.091
44.0755
45.3104
41.9399
37.1989
33.4789
31.2639
29.3432
25.9803
20.2625
12.8636
5.84073
1.62486
1.76252
6.05832
12.5428
18.2853
20.6847
18.6698
13.2891
7.43399
4.79249
8.43965
19.6137
37.1596
57.8615
77.5344
92.4338
100.413
101.371
96.8796
89.2365
80.4943
71.9411
64.2304
57.9216
53.9288
53.4274
57.1588
64.5497
73.3167
80.0415
81.636
76.9976
67.8874
58.3773
52.985
54.4062
62.076
72.4056
80.6319
83.311
80.1152
73.9827
69.5804
70.9304
79.4145
93.0572
107.257
116.472
116.095
103.959
81.1783
52.2571
24.3256
5.36061
1.53009
14.407
39.3701
66.4828
84.2151
84.8194
68.8595
46.247
32.5608
41.8447
79.2076
137.073
197.352
238.857
246.517
217.929
164.123
104.339
57.5794
35.0755
37.0004
54.3721
74.5239
87.1082
87.8858
79.0944
66.9704
58.1025
56.373
61.5655
69.8352
75.5854
73.9732
63.1829
45.6567
27.6956
17.3395
21.1567
41.2209
73.7098
109.985
139.865
155.675
155.181
142.05
123.729
107.916
99.4386
98.932
103.645
109.572
113.593
114.592
113.293
111.315
110.202
110.914
113.821
118.862
125.573
132.95
139.349
142.671
140.9
132.776
118.31
98.9224
77.1807
56.2816
39.418
29.1204
26.6245
31.4011
41.0864
52.0451
60.5687
64.3385
63.4907
60.6598
59.8038
64.2588
74.9494
89.7017
104.084
113.411
114.92
108.991
98.8064
88.6152
81.5253
77.9467
75.4739
70.2437
59.0823
41.3851
19.8322
-0.410544
-13.6739
-16.1277
-7.51556
8.45373
25.3085
36.2786
37.1883
28.6668
16.6464
10.6138
19.9227
49.4034
96.0998
148.847
191.415
208.404
191.627
144.152
79.9579
18.9994
-20.3608
-28.2643
-6.56434
32.9864
74.4933
104.747
117.95
116.489
108.011
100.847
100.293
107.345
119.897
135.023
150.731
166.235
181.03
193.805
202.225
203.854
197.659
185.074
169.934
157.261
151.535
155.25
168.273
188.006
210.051
229.105
240.016
239.005
224.929
200.101
170.051
141.886
121.626
111.602
109.255
108.18
101.153
83.7943
57.0423
27.1262
2.939
-7.95829
-2.77946
15.2316
38.2654
57.3491
66.0498
62.8225
51.0978
37.2841
27.7327
26.0342
31.728
40.8333
47.8635
48.4465
41.4726
29.8819
19.6934
17.5599
27.7764
50.0264
78.9934
106.255
123.833
127.873
120.626
109.577
103.861
109.55
126.153
146.224
158.51
153.229
126.927
84.4448
37.0022
-2.65293
-25.5948
-29.9918
-20.8981
-7.01043
3.69868
7.22518
4.27793
-1.37661
-5.66207
-6.40367
-3.98164
-0.449247
2.03728
2.44667
1.16122
-0.598922
-1.67099
-1.5776
-0.60913
0.532525
1.20774
1.14661
0.492414
-0.346264
-0.907331
-0.866586
-0.17814
0.863051
1.69107
1.71258
0.667323
-1.08616
-2.60338
-2.81907
-1.2722
1.34997
3.31681
2.75421
-1.05541
-6.78883
-11.382
-11.6645
-6.57329
1.43726
7.01162
4.71677
-7.172
-24.1193
-35.952
-31.0459
-2.36258
47.8202
107.414
159.178
188.613
191.127
174.5
154.973
148.712
163.026
192.131
219.878
228.19
206.791
159.047
100.793
52.7489
30.4988
37.1895
62.5887
88.7613
99.2951
87.3984
59.0006
29.6126
16.717
31.3994
73.0334
129.251
181.031
210.584
208.645
178.133
132.651
90.4895
66.7021
66.7393
84.5531
106.143
116.983
109.794
88.7847
68.0439
64.6261
89.632
141.771
206.829
263.582
293.419
288.998
257.63
217.696
189.831
187.256
209.975
245.584
276.042
286.773
273.378
242.636
207.602
179.814
163.111
152.574
139.058
116.493
87.3519
62.692
56.3158
76.1996
118.234
166.277
199.05
200.438
167.653
112.744
56.5863
18.6223
7.91183
20.1278
41.6409
57.8613
60.8718
52.235
40.0198
32.5423
32.9957
38.1673
41.5988
38.7216
30.4234
22.7309
22.918
34.6367
55.2192
76.8544
90.8902
92.6212
83.7064
70.8717
61.7962
60.6761
66.0256
71.8588
71.4205
61.2543
43.3367
24.1913
11.5737
10.5582
21.0438
37.8587
53.2889
60.7087
57.5659
46.3872
33.4417
25.7635
27.9158
39.9339
57.3303
73.1275
81.0106
78.2066
66.8182
53.009
44.3722
46.6151
61.0061
83.7157
107.378
124.229
129.487
123.471
111.498
101.515
100.494
111.223
131.044
153.228
170.408
178.366
178.197
175.581
177.417
187.555
204.011
219.342
224.171
212.058
183.062
144.056
105.635
77.4102
64.2491
65.3493
76.1969
91.7775
108.858
126.071
142.232
154.581
158.671
150.346
128.642
97.5698
65.3121
40.9219
30.2365
33.2807
44.5919
56.2192
61.6625
58.6308
49.3448
38.5874
30.8857
28.4466
30.7613
35.7031
41.1525
46.1064
50.7684
55.8487
61.7418
68.1874
74.5719
80.5222
86.226
92.1126
98.0302
102.534
103.015
97.0117
84.2523
68.3092
56.5805
57.9936
79.073
120.166
173.936
227.324
266.444
282.166
273.616
247.778
215.472
185.968
163.182
145.383
128.204
108.794
88.3659
71.5746
63.2307
64.6142
71.8952
77.8211
75.7331
63.4716
44.7603
27.18
17.9118
19.7666
29.8273
41.4619
48.4832
49.0076
46.7943
49.325
63.7265
92.7779
133.104
176.393
212.871
235.213
241.026
232.989
216.926
199.008
183.444
171.493
161.884
152.09
139.742
123.601
103.879
81.9825
59.9238
39.6526
22.5565
9.26788
-0.193846
-6.07183
-8.55349
-7.71215
-3.76841
2.51597
9.66125
15.7928
19.4469
20.4708
20.443
22.1951
28.4888
40.4266
56.4374
72.4949
83.6425
86.2139
79.7142
67.3865
55.0519
48.6025
51.2173
61.6121
74.303
82.0309
79.4829
66.68
50.2861
41.799
52.9343
89.943
149.424
217.856
275.569
303.864
292.311
243.025
169.92
93.2562
31.9514
-2.90561
-10.6615
0.861664
20.3679
38.3595
50.1852
55.8858
57.6906
57.1389
53.6801
45.4369
31.3675
13.1971
-4.33581
-15.305
-15.5764
-5.24989
10.935
25.6535
32.567
29.5654
19.9098
10.5615
8.4887
16.8731
33.2682
50.7583
61.5558
61.1301
50.6477
36.4224
26.7123
27.6332
40.3629
60.991
82.8324
99.7088
108.363
108.926
103.637
95.0286
84.8039
73.9402
63.4966
55.1488
50.7827
51.3446
55.8595
61.5358
65.1379
64.8466
61.3613
57.4038
55.838
57.606
60.9028
62.2595
58.9485
51.1743
42.5407
38.3021
42.3051
54.4225
70.0898
82.3724
85.5136
78.025
63.5925
49.256
41.7989
44.2316
54.1894
65.0675
69.3321
62.3864
45.1141
23.8517
7.72416
4.49056
16.7617
40.3777
65.8688
82.5863
83.8226
70.602
52.1865
42.66
54.7327
93.343
152.015
213.939
257.766
265.934
232.097
164.397
82.9957
12.6907
-26.4257
-26.4371
5.89914
52.6512
92.6974
110.744
103.46
80.0422
57.0481
49.9429
65.4198
98.1968
133.824
156.024
154.77
130.94
95.2625
62.3549
43.2917
40.8069
49.5178
60.5429
67.3647
69.2874
70.6243
76.6042
89.0684
104.98
118.684
126.186
128.272
130.136
137.646
152.883
172.22
188.572
196.487
196.544
195.71
202.826
221.771
246.824
263.756
256.836
218.073
153.268
80.9182
24.0807
-0.54776
9.65921
42.9816
80.4589
106.132
114.558
111.588
108.548
113.803
126.97
139.126
138.541
118.165
80.2909
35.7243
-1.76704
-22.3118
-24.2126
-13.5917
-0.163808
8.06985
8.23082
2.62393
-3.90522
-7.30689
-6.37802
-2.69768
0.998443
2.68874
2.04159
0.157723
-1.45281
-1.86039
-1.10173
0.101841
0.947748
1.03985
0.513807
-0.169182
-0.555349
-0.448437
0.0266057
0.5323
0.7191
0.422405
-0.228226
-0.846926
-0.985502
-0.412367
0.672907
1.652
1.7925
0.726907
-1.17535
-2.83926
-3.02175
-1.1336
2.137
4.87983
4.84628
0.797562
-6.4354
-13.9155
-17.8242
-15.4419
-6.82409
4.86893
14.7643
18.7754
15.8592
8.69477
2.27153
1.09599
6.60549
16.3492
25.496
29.8118
28.2777
23.6514
20.5016
21.8858
26.8558
30.6642
27.9624
17.3198
4.25001
0.414975
18.6753
66.1022
138.563
220.075
287.884
321.292
310.221
259.458
186.569
114.518
62.4966
39.1607
41.0428
56.2876
71.3652
77.3104
72.7094
62.584
54.3965
53.5938
60.9428
72.676
82.9234
86.8707
82.9736
73.2903
62.0567
53.4591
49.7782
50.6952
53.8543
56.1729
55.1574
49.6655
39.9724
27.3727
13.6858
0.904049
-9.0245
-14.4495
-14.4369
-9.26813
-0.724358
8.16797
14.0264
14.3658
8.65801
-1.35916
-12.3559
-20.8087
-24.4791
-23.2789
-19.1381
-15.0004
-13.4866
-15.8746
-21.8071
-29.7291
-37.7023
-44.1456
-48.2049
-49.7308
-49.0517
-46.7567
-43.5802
-40.3265
-37.7249
-36.1864
-35.5763
-35.1887
-34.0338
-31.3564
-27.1208
-22.1628
-17.8655
-15.4863
-15.4875
-17.2422
-19.2904
-20.0102
-18.3395
-14.1726
-8.27735
-1.86717
3.85835
7.95073
9.7158
8.70121
4.90885
-0.766096
-6.20836
-8.36352
-4.38447
6.6846
22.6097
38.1288
47.0882
45.9574
37.0431
29.3845
36.1199
68.8414
131.254
215.302
302.149
368.267
394.312
372.9
311.678
230.204
152.052
95.7825
68.805
66.5814
76.9128
86.7222
87.8725
79.5022
66.4249
55.1369
49.8926
50.8173
54.6102
56.9445
54.9622
48.5341
39.8733
32.0274
27.2398
26.0104
27.1494
28.576
28.3445
25.4322
20.0568
13.5194
7.70658
4.42898
4.78806
8.76644
15.2032
22.2049
27.8699
31.0433
31.7809
31.3152
31.5463
34.2878
40.5866
50.3585
62.4151
74.8033
85.3095
91.9921
93.6515
90.1538
82.5181
72.687
62.9835
55.397
50.9614
49.4928
49.8087
50.3204
49.7048
47.336
43.3109
38.1406
32.3505
26.2423
19.9233
13.5151
7.34639
1.971
-2.00752
-4.18983
-4.56095
-3.5113
-1.71708
0.0437894
1.08028
0.967209
-0.29276
-2.18487
-3.79012
-4.16063
-2.87078
-0.44694
1.69125
1.94251
-0.375342
-4.20087
-6.89242
-5.61868
0.598876
9.43562
15.648
13.6702
1.42916
-16.7074
-29.9618
-24.979
7.78432
68.0931
143.67
213.412
255.186
254.863
212.344
141.672
65.1227
4.10669
-28.8612
-33.5836
-19.9321
-1.66837
10.2447
11.6445
5.09361
-3.39968
-8.53083
-8.38353
-4.55837
-0.264341
2.07915
2.21327
1.76027
2.7661
6.16551
11.1404
15.6542
17.6946
16.404
12.4549
7.56536
3.55338
1.52051
1.5715
3.08982
5.26867
7.52158
9.56648
11.2421
12.2896
12.3172
10.9947
8.33723
4.85571
1.43306
-1.0373
-2.0561
-1.73553
-0.704789
0.241295
0.552181
0.167418
-0.521588
-0.949645
-0.723188
0.162193
1.33996
2.29468
2.64673
2.33715
1.6216
0.896979
0.474965
0.433931
0.622283
0.791263
0.76222
0.522945
0.202195
-0.0457633
-0.157004
-0.188868
-0.244925
-0.354884
-0.412483
-0.240868
0.240148
0.86526
1.23393
0.932063
-0.138974
-1.55168
-2.46854
-2.11002
-0.340977
2.01987
3.47941
2.71477
-0.454315
-4.61758
-7.31238
-6.4446
-1.84904
4.04647
7.15295
4.06597
-5.32165
-16.5282
-21.6351
-12.7626
13.6377
53.8984
97.4277
130.435
141.562
126.784
91.2067
46.8467
7.50327
-16.8102
-23.2904
-16.2535
-3.97001
5.69721
8.63371
5.38556
-0.349683
-4.44225
-4.65386
-1.45885
2.75936
5.38791
5.07689
2.28572
-1.23056
-3.53185
-3.51737
-1.35856
1.76754
4.38599
5.45532
4.78089
2.98596
1.13892
0.263177
0.958685
3.27068
6.81054
11.0238
15.4511
19.8543
24.1644
28.3101
32.0548
34.9621
36.5325
36.444
34.7529
31.9221
28.6367
25.4936
22.7342
20.1724
17.3653
13.9304
9.83213
5.47489
1.55229
-1.26044
-2.60211
-2.55841
-1.58201
-0.268398
0.879349
1.58404
1.79472
1.60475
1.16838
0.663594
0.287793
0.237531
0.642499
1.48125
2.54966
3.53758
4.19383
4.47728
4.57276
4.72886
5.0107
5.15727
4.69853
3.31527
1.21496
-0.790489
-1.67867
-0.931363
0.888206
2.1986
1.27668
-2.44618
-7.5079
-10.7579
-9.07818
-1.69551
8.37109
15.039
12.2985
-1.53244
-20.8032
-32.99
-23.2911
18.2325
90.3059
178.358
258.427
305.873
305.198
256.46
175.273
86.3714
13.7764
-27.9395
-37.5682
-25.1717
-5.68818
8.27817
11.1163
4.6878
-4.73439
-10.8494
-10.6154
-5.06939
2.1571
7.32875
8.57973
6.45955
3.09393
0.717235
0.485757
2.12144
4.37648
5.89136
5.92352
4.61475
2.76869
1.34842
0.986009
1.73219
3.13104
4.54974
5.57831
6.27302
7.07825
8.42459
10.2121
11.5305
10.9218
7.20876
0.511766
-7.20727
-12.6459
-12.7588
-6.76396
2.64235
9.93234
9.44777
-0.90011
-16.9066
-28.2285
-22.0857
10.7089
70.1476
144.857
214.979
259.329
263.794
227.151
161.546
87.4088
25.2145
-12.1074
-22.8205
-14.8993
-0.736143
9.02126
9.56597
2.4679
-6.87575
-12.992
-13.1857
-8.28384
-1.39607
4.19389
6.69521
6.27233
4.36889
2.55808
1.67251
1.61522
1.76313
1.55824
0.879843
0.027911
-0.572638
-0.690536
-0.417039
-0.0571274
0.104074
-0.0137982
-0.265919
-0.420619
-0.347283
-0.118505
0.0490874
-0.0147033
-0.230996
-0.196914
0.683652
2.9003
6.5103
10.9661
15.2153
18.0592
18.6189
16.6932
12.8372
8.12934
3.74316
0.53225
-1.19317
-1.63129
-1.26513
-0.597721
0.0222846
0.437231
0.623165
0.621853
0.517171
0.447821
0.603757
1.16263
2.17717
3.48157
4.69774
5.37412
5.20684
4.22663
2.83291
1.62756
1.11338
1.41427
2.1876
2.81345
2.7898
2.11704
1.41079
1.59432
3.26403
6.07345
8.57752
8.80447
5.40827
-1.19391
-8.48007
-12.771
-11.248
-4.03494
5.01357
9.74749
5.15397
-8.7569
-24.8562
-30.3359
-11.7857
38.0268
114.912
202.515
277.106
316.266
307.734
254.391
173.052
87.6427
19.9238
-18.0598
-26.7184
-16.2212
-0.307483
10.1124
10.6887
3.56216
-5.63353
-11.597
-11.9674
-7.74169
-1.86458
2.79809
4.87772
4.72779
3.66657
2.92805
2.98523
3.51971
3.87025
3.56518
2.60232
1.37606
0.380595
-0.0873183
-0.0577839
0.187319
0.314895
0.141298
-0.269131
-0.647747
-0.679415
-0.193982
0.710567
1.6941
2.36392
2.55059
2.52075
2.97593
4.77706
8.48433
13.9323
20.0859
25.3089
27.9726
27.1381
22.9852
16.764
10.2825
5.16931
2.26651
1.4275
1.78268
2.29693
2.31029
1.7914
1.21124
1.15611
1.92637
3.34603
4.86498
5.86283
5.9635
5.1913
3.91208
2.62623
1.73881
1.40955
1.52201
1.76283
1.79036
1.46454
1.06814
1.38005
3.44219
7.97812
14.6746
21.7791
26.4748
26.1379
19.9766
10.0802
0.971977
-2.49336
2.0388
12.5239
22.994
26.6002
19.7777
5.10249
-9.16139
-13.0413
-0.426362
26.8953
59.2304
83.3098
88.7559
73.1998
43.2808
11.0844
-11.8932
-19.9327
-14.8157
-3.59924
5.855
8.90145
5.6415
-0.37302
-4.97783
-5.88087
-3.48732
0.0146382
2.36699
2.56495
1.11136
-0.678408
-1.66444
-1.4973
-0.593015
0.338525
0.798313
0.718884
0.352725
0.00412077
-0.173085
-0.201876
-0.176406
-0.148174
-0.0979948
0.00452217
0.126859
0.163083
0.00694702
-0.344109
-0.739871
-0.938823
-0.761163
-0.243032
0.318647
0.491288
-0.0357534
-1.1908
-2.41539
-2.81358
-1.52454
1.84141
6.921
12.6326
17.5416
20.4054
20.6486
18.55
15.0608
11.3565
8.34671
6.37835
5.24927
4.48642
3.70815
2.86411
2.23131
2.19148
2.93757
4.29098
5.73927
6.67409
6.69507
5.81234
4.4427
3.2111
2.6703
3.08217
4.35488
6.14094
8.02771
9.73138
11.2282
12.7896
14.9019
18.0571
22.433
27.5654
32.208
34.5965
33.184
27.621
19.4559
11.9661
8.8636
12.2647
20.9601
30.1982
33.6369
26.9583
11.4545
-4.57256
-8.02706
13.4606
64.9498
139.801
220.119
282.528
307.114
285.581
224.828
144.174
67.4841
13.8432
-9.02779
-5.9176
10.1216
24.8574
29.2085
22.0541
8.82967
-2.66358
-6.69896
-2.11604
7.96497
18.4953
25.3177
26.9522
24.685
21.2941
19.3543
20.0534
22.9726
26.6926
29.7122
31.1506
30.9583
29.6814
28.0318
26.5389
25.4279
24.7057
24.3286
24.3133
24.7293
25.6052
26.8445
28.2355
29.5705
30.8018
32.1174
33.8461
36.2059
39.0196
41.5782
42.7866
41.581
37.4471
30.777
22.8496
15.3949
9.9144
7.07528
6.47672
6.91482
7.02032
5.94998
3.77837
1.38767
-0.0833899
0.067874
1.65955
3.68476
4.87188
4.45476
2.72425
1.02353
1.13581
4.3455
10.6529
18.5691
25.6324
29.4162
28.5489
23.2645
15.2533
6.93075
0.498987
-2.78333
-2.87668
-0.778741
1.94539
3.72022
3.46784
0.987615
-2.88474
-6.47076
-7.88302
-5.98448
-1.26928
3.91172
6.1987
3.0346
-5.33365
-14.8271
-18.4068
-8.89254
17.3463
57.631
102.767
139.894
157.356
149.431
118.688
74.8571
30.7826
-2.58045
-19.8091
-21.8431
-14.0551
-2.94341
6.72477
13.0702
16.4592
17.9591
18.0855
16.5722
13.0634
8.00438
2.95778
0.0521938
0.908739
5.75294
13.288
21.4059
28.2919
33.2614
36.8755
40.3393
44.6119
49.7854
55.0848
59.4404
62.2493
63.8467
65.3954
68.2423
73.0945
79.4751
85.7734
89.8996
90.2368
86.4228
79.5682
71.7969
65.3344
61.5915
60.6814
61.5652
62.6865
62.7156
61.0156
57.6537
53.0771
47.7514
42.0209
36.2362
30.9603
26.9992
25.1375
25.7059
28.2737
31.7078
34.6115
35.8981
35.1663
32.6902
29.103
25.0536
21.0859
17.7692
15.8683
16.2785
19.6418
25.8476
33.7976
41.6976
47.7955
51.1478
51.9237
51.0331
49.3187
46.8685
42.9522
36.6724
27.9242
18.0205
9.51669
5.26213
7.16571
15.3114
27.8181
41.4136
52.3845
57.547
55.0774
45.2031
30.6876
16.804
10.3529
17.5272
41.0824
77.9888
118.987
150.891
161.192
143.202
99.3339
40.7745
-16.5813
-58.2259
-76.4054
-72.3589
-54.6043
-34.3918
-20.7192
-17.263
-22.3395
-31.3367
-39.8898
-45.9932
-50.1531
-53.9553
-58.2782
-62.3883
-64.4165
-62.7718
-57.4774
-50.5336
-45.0543
-43.677
-47.1384
-53.7704
-60.1331
-62.4197
-57.9484
-46.119
-28.5379
-8.38303
10.6839
25.6931
35.3097
40.2887
43.2611
47.8074
57.0118
71.9848
91.0087
109.845
123.277
127.342
121.231
107.855
92.6754
81.2268
76.5613
77.908
81.2909
81.8017
76.3255
65.2573
52.2968
42.4678
39.4806
43.8851
52.9786
62.4194
68.5636
70.1995
68.786
67.2075
67.8924
71.4315
76.4437
80.6421
82.3524
81.5239
79.6389
78.6252
79.4674
81.3778
82.042
78.8326
70.3283
57.296
42.5604
29.7647
21.6101
18.4722
18.1555
17.0198
12.0048
2.54398
-8.7194
-16.9987
-17.8911
-10.1514
2.87246
14.2594
16.9072
7.82559
-8.94268
-22.7043
-20.2379
7.87363
61.6497
129.805
192.923
230.679
230.021
190.611
125.03
53.6985
-3.12923
-32.7343
-33.6077
-14.2896
11.5471
31.209
37.5982
30.7126
16.0049
0.874718
-8.91868
-11.4655
-8.90435
-5.87145
-7.07029
-15.0316
-28.941
-44.9473
-57.7756
-62.945
-58.6259
-46.3025
-29.934
-14.0127
-1.47489
7.49359
15.1663
24.698
38.1489
55.2125
73.3427
89.1773
100.421
107.093
111.434
116.514
124.374
134.743
145.078
151.886
152.605
147.004
137.355
127.316
120.148
117.222
117.558
118.581
117.613
113.285
106.152
98.2435
91.8572
88.2797
87.105
86.49
84.1805
78.7515
70.4098
60.9429
52.8375
48.0186
46.8538
47.9454
48.8345
47.2739
42.4148
35.2735
28.2013
23.609
22.6228
24.4252
26.6873
26.8918
23.8056
18.2191
12.4553
8.88011
8.3104
9.36506
9.29721
5.90719
-0.660896
-7.54068
-10.7134
-7.7828
-0.208795
6.75245
6.97293
-1.99837
-15.3782
-21.1762
-4.74611
43.7331
122.456
215.712
298.057
343.685
336.939
279.039
187.778
90.2769
12.2145
-31.4948
-40.5786
-26.7026
-6.24523
7.52398
9.21792
1.44779
-8.80173
-14.9701
-14.2628
-8.20037
-0.763912
4.31168
5.45511
3.55289
0.863055
-0.517473
0.312572
2.94867
6.29345
9.3403
11.6349
13.254
14.476
15.46
16.1491
16.4112
16.26
15.9759
16.0418
16.9409
18.9424
21.9891
25.7309
29.6674
33.3263
36.4007
38.8027
40.621
42.0007
42.9896
43.4131
42.8495
40.7489
36.6771
30.5931
23.0203
14.9957
7.775
2.39884
-0.684639
-1.75339
-1.62451
-1.23282
-1.18551
-1.51857
-1.77356
-1.34285
0.110288
2.38542
4.77569
6.38197
6.5527
5.23006
3.02786
0.990511
0.127989
0.93096
3.0966
5.6227
7.2685
7.19055
5.42991
2.94482
1.08883
0.757595
1.69613
2.47259
1.29878
-2.66573
-8.33165
-12.8267
-13.0069
-7.66378
0.936127
7.4991
6.49133
-3.8466
-18.4985
-25.9001
-12.1948
31.8971
104.824
192.06
269.9
314.12
309.806
257.756
174.318
84.6719
12.7132
-27.7362
-36.5362
-24.5618
-6.77627
5.11321
6.89499
1.53865
-4.57982
-6.23477
-2.11085
5.32699
12.1178
15.4311
14.8993
12.1446
9.21388
7.19935
5.95603
4.90451
4.11324
4.71042
8.2299
15.3203
24.7623
33.5965
38.4647
37.4627
31.4179
23.777
19.0605
20.6546
29.0985
41.7711
54.1437
61.9497
63.1677
58.8417
52.3776
47.7318
47.4418
51.481
57.4604
61.9932
62.4534
58.1935
50.6201
42.1675
34.8194
29.0599
23.8679
17.7392
10.1006
2.21881
-3.01859
-2.42243
5.7643
20.6795
38.8896
55.691
67.0129
70.9671
68.3276
61.8215
54.7234
49.5199
47.2398
47.5847
49.5583
52.1204
54.5362
56.3885
57.4374
57.5242
56.5657
54.5395
51.3715
46.7879
40.3452
31.8148
21.8277
12.3473
6.41008
6.87336
14.5616
26.8477
37.8591
40.875
32.2591
15.0718
0.101791
2.91779
37.4292
108.489
207.114
311.178
392.117
425.258
399.424
321.502
213.829
105.54
21.7541
-24.6888
-35.6574
-23.9736
-5.94268
5.97815
7.16331
0.347585
-8.08695
-12.5273
-10.904
-4.83604
2.24409
7.44117
9.79201
10.1619
10.1043
10.6581
11.8648
13.1508
14.1039
14.9821
16.57
19.5155
23.6541
27.8331
30.4057
30.1152
26.8359
21.72
16.6621
13.3934
12.7202
14.3132
17.1122
20.0565
22.6823
25.2375
28.274
31.9977
35.8014
38.2996
37.8956
33.6026
25.6903
15.8024
6.45381
0.117319
-1.69833
1.01313
6.80719
13.3739
18.3895
20.2925
18.7175
14.481
9.18778
4.63576
2.23181
2.5944
5.44797
9.82738
14.5199
18.5899
21.7785
24.5908
27.9892
32.7991
39.1074
45.9979
51.8435
55.0818
55.0829
52.5798
49.3011
46.8956
45.7334
44.3794
40.2601
31.3419
17.896
3.13816
-8.00104
-11.6191
-7.61642
-0.607499
2.17869
-4.52084
-19.2131
-31.6283
-25.4742
14.4069
93.4659
201.798
314.885
401.33
434.666
404.036
318.776
204.694
93.7425
11.8666
-29.5514
-35.2397
-20.7191
-3.44231
5.03702
2.44388
-6.01905
-12.7091
-12.5981
-5.71388
3.79496
10.7847
12.2724
8.83559
3.76288
0.806561
2.02855
6.92957
13.1323
17.9758
19.9827
19.415
17.786
16.8034
17.4467
19.6689
22.7522
25.9604
29.0193
32.1506
35.7177
39.7868
43.9307
47.4116
49.6133
50.4284
50.3378
50.1198
50.3577
51.0451
51.5258
50.8082
48.0758
43.1071
36.3857
28.8662
21.5576
15.1649
9.96772
5.94433
3.00098
1.12219
0.341476
0.579657
1.50295
2.54371
3.11053
2.87307
1.93992
0.805226
0.0839026
0.19022
1.14767
2.62796
4.16788
5.40938
6.21964
6.65756
6.86942
7.02445
7.32028
7.97502
9.0945
10.4168
11.1223
9.98807
6.02174
-0.647279
-8.19165
-13.4388
-13.3369
-6.96784
3.08329
11.1929
11.3662
1.14116
-15.327
-27.1409
-20.4152
15.2201
80.2996
162.766
240.791
290.539
295.648
254.083
179.084
93.7036
21.4927
-22.3265
-35.3074
-26.2852
-9.34017
3.37617
6.43759
1.71371
-4.74888
-7.22932
-3.61033
4.05933
11.4796
14.9483
13.37
8.44484
3.26194
0.387287
0.622532
3.00658
5.80583
7.71369
8.51119
8.90981
9.8445
11.7657
14.3716
16.8643
18.4718
18.8681
18.2598
17.1731
16.1484
15.5581
15.6113
16.4467
18.1623
20.7088
23.7199
26.4441
27.9
27.2409
24.1608
19.12
13.2481
7.94669
4.36766
3.00329
3.55926
5.14523
6.67775
7.31524
6.75318
5.28097
3.59978
2.48786
2.45073
3.49721
5.13461
6.58929
7.16005
6.54544
4.98857
3.16395
1.85661
1.5901
2.38794
3.78401
5.06678
5.62325
5.20534
3.99547
2.46287
1.10985
0.249459
-0.0824138
-0.064782
0.0561664
0.105096
0.0378117
-0.0860372
-0.177691
-0.186047
-0.120971
-0.0326057
0.028141
0.0390021
0.0111323
-0.026427
-0.0477086
-0.0428736
-0.0188799
0.00843619
0.0241576
0.021217
0.00295267
-0.0185279
-0.0277933
-0.0143481
0.0193799
0.0555096
0.067962
0.0385009
-0.0268555
-0.093424
-0.113422
-0.0570184
0.0590802
0.167747
0.18324
0.056686
-0.177835
-0.402657
-0.475126
-0.320879
-0.00612912
0.267075
0.260479
-0.147471
-0.84238
-1.47329
-1.59831
-0.917776
0.528866
2.32636
3.85559
4.60761
4.48209
3.90175
3.65853
4.54533
6.94619
10.5908
14.6043
17.8385
19.3333
18.695
16.2232
12.745
9.24996
6.50109
4.79168
3.93114
3.43411
2.80238
1.76642
0.390206
-0.985425
-1.91685
-2.06481
-1.34856
0.00954607
1.56041
2.79282
3.32369
3.04261
2.15364
1.09282
0.345875
0.234693
0.764517
1.61082
2.27148
2.33004
1.70448
0.736982
0.040886
0.150798
1.15757
2.56503
3.51717
3.32917
2.02609
0.505179
0.0991997
1.68496
4.85243
7.75775
7.97539
4.04111
-3.20456
-10.4797
-13.5809
-9.98424
-1.04445
7.8311
9.7495
0.747878
-16.2556
-30.5744
-27.2746
5.86959
71.1228
157.091
241.087
297.185
306.612
265.709
187.635
96.9466
19.595
-26.9899
-39.3278
-26.8137
-5.36725
10.6214
14.1139
6.6909
-4.50683
-11.8623
-11.4857
-4.59339
4.09276
9.52679
9.14309
3.8856
-2.75899
-6.87648
-6.11818
-0.611704
7.44179
15.035
19.7414
20.6134
18.3636
14.9549
12.8886
14.4472
21.0435
32.767
48.2307
64.8354
79.4913
89.6455
94.2465
94.192
91.9613
90.5046
91.8588
96.1629
101.591
105.272
104.748
99.2177
89.9391
79.5952
70.9972
65.8239
64.0374
64.2042
64.4437
63.4214
60.8501
57.3125
53.6373
50.2871
47.1416
43.7567
39.8511
35.6462
31.808
29.0341
27.5792
27.0574
26.6738
25.7411
24.1354
22.3743
21.247
21.2321
22.0959
22.9577
22.7946
21.0497
17.9153
14.0815
10.1343
6.08038
1.43602
-4.08984
-9.79819
-13.8145
-13.9557
-9.36117
-1.87049
4.05805
3.44541
-5.78183
-19.863
-28.8376
-19.7808
17.2315
83.0855
166.746
247.577
302.464
314.812
281.335
213.417
132.377
60.8773
14.4746
-2.99355
1.43978
15.0813
26.151
28.5121
22.7516
13.8799
7.50361
6.68515
10.8726
16.9271
21.2175
21.4811
17.615
11.323
5.10326
1.18984
0.841225
4.06965
9.73833
15.9461
20.6476
22.4036
21.0199
17.7533
14.8713
14.661
18.3272
25.3659
33.8013
41.2121
45.9998
48.1768
49.2019
50.9371
54.3317
58.6214
61.551
60.5418
54.1676
43.1079
30.0277
18.4216
11.0274
8.63558
9.89485
12.1653
12.9261
10.9829
6.87434
2.33298
-0.836375
-1.81529
-1.19223
-0.540987
-1.41635
-4.33813
-8.3387
-11.3474
-11.2378
-6.99937
0.587837
9.16002
15.7872
18.3066
16.3041
11.2566
5.79137
2.47657
2.7726
6.62747
12.7899
19.5049
25.114
28.2826
27.967
23.4906
14.9988
4.12615
-5.73755
-10.2473
-6.09824
6.56428
22.7937
33.9171
31.3008
11.4404
-20.2279
-49.3517
-57.4907
-30.239
34.9479
125.225
215.456
277.162
289.617
248.124
165.728
67.6877
-18.6379
-73.8227
-92.078
-80.7277
-54.607
-28.6573
-12.2573
-7.35801
-10.2853
-15.3881
-18.2977
-17.386
-13.3528
-7.87729
-2.45482
1.99554
4.91304
5.8375
4.54749
1.5413
-1.61458
-2.56556
0.830692
9.24075
21.0904
32.8867
40.6392
41.7427
36.356
27.5084
19.8053
17.3366
21.8214
31.9129
43.9901
54.0002
59.3869
60.1196
58.3387
56.875
57.4929
59.8373
61.6618
60.2025
53.9278
43.6762
32.5215
24.3949
22.1764
26.2676
34.4046
42.8051
48.023
48.5168
45.1208
40.2403
36.3101
34.4476
34.0743
33.6635
32.0697
29.5318
27.6485
28.286
32.0977
37.6589
41.9164
41.8658
36.5577
28.1952
21.4828
21.3381
30.0745
45.6118
61.8651
71.3516
68.8235
54.0598
32.2584
11.6602
-0.483561
-1.5235
5.36279
13.0913
14.7922
7.89506
-4.1753
-13.8326
-13.868
-2.20622
15.9872
30.4664
31.6317
16.9447
-5.62109
-19.5404
-6.85346
42.6548
124.739
220.112
300.835
341.113
327.684
265.073
173.427
80.0859
8.89386
-28.0001
-32.6044
-17.466
1.60795
12.7547
12.0473
3.10311
-6.6563
-10.7013
-6.65689
3.13862
13.535
19.5736
18.9585
12.8993
5.17064
0.0798137
0.420289
6.33214
15.4541
24.1337
29.0403
28.4452
22.6892
13.7729
4.39419
-3.07012
-7.21762
-7.74419
-5.15127
-0.304325
5.91147
12.7376
19.5452
25.8148
31.1705
35.4489
38.7227
41.2187
43.1533
44.5844
45.3788
45.3242
44.311
42.4606
40.1102
37.6621
35.3973
33.3707
31.4509
29.4653
27.3487
25.1996
23.2196
21.5895
20.3724
19.5023
18.8477
18.2929
17.7726
17.2451
16.6401
15.8405
14.7247
13.2435
11.4695
9.57075
7.71733
5.99099
4.37914
2.8801
1.65425
1.09205
1.69491
3.78313
7.19242
11.1886
14.7415
17.0733
18.1577
18.7822
19.9873
22.1146
24.0672
23.4406
17.7568
6.30582
-8.51352
-21.4781
-26.8085
-21.5385
-8.09907
5.7984
10.6813
0.971231
-20.1304
-39.6482
-39.2334
-3.6504
70.4887
170.323
269.555
337.922
353.301
310.891
225.121
123.418
34.8969
-20.7101
-38.9594
-29.3989
-8.61509
8.33221
13.8718
9.016
0.122094
-6.08752
-6.30499
-1.54572
4.57189
8.54787
8.9179
6.46169
3.03938
0.163365
-1.67485
-2.63978
-2.6638
-0.865234
4.21893
13.7467
27.7066
44.7521
62.9145
80.7324
98.0107
115.642
134.556
154.49
173.455
188.377
196.632
197.581
193.114
186.794
181.989
180.082
179.793
178.039
171.86
160.274
145.033
129.822
118.414
112.798
112.288
114.029
114.519
111.317
104.079
94.5302
85.5319
79.7575
78.5685
81.4708
86.2736
89.8507
89.2607
82.8835
71.165
56.6117
42.9056
33.396
29.6024
30.4767
32.8877
33.1798
29.0563
20.7956
11.1244
3.79156
1.60527
4.99002
11.8187
18.5568
22.0536
21.0175
16.4602
10.9884
7.40433
7.34754
10.5865
15.2039
18.5282
18.4012
14.276
7.67288
1.68792
-0.42267
2.89373
10.0731
16.4586
16.2706
6.04062
-12.0337
-28.8272
-30.5226
-4.12837
55.8276
142.643
237.566
315.393
353.574
340.934
282.051
195.273
105.296
33.7752
-7.88413
-20.6513
-14.6698
-2.94515
4.73254
4.93559
-0.000490018
-5.17062
-6.69157
-3.76478
1.5061
5.9202
7.25237
5.38748
2.07948
-0.255507
0.139089
3.65692
9.48027
16.3027
23.0844
29.401
35.2685
40.6655
45.1287
47.727
47.4759
43.9836
37.9605
31.2566
26.3072
25.1725
28.5994
35.5793
43.6768
50.0355
52.6083
51.0196
46.6301
41.7858
38.6597
38.2984
40.3469
43.5078
46.3741
48.0856
48.4411
47.5016
45.094
40.6926
33.8717
25.0648
16.046
9.62041
8.46341
13.6286
23.5757
34.4103
41.4123
41.1974
33.4202
21.0895
9.24965
2.64406
3.53332
10.7676
20.5506
28.4351
31.4594
29.3166
24.0403
18.5355
14.8989
13.5007
13.2628
12.8052
11.6242
10.5164
11.0111
14.2449
20.0663
26.9611
32.8015
35.8671
35.4483
31.7194
25.1658
16.2
5.40157
-5.79629
-14.7219
-18.1255
-13.9336
-3.15786
9.52581
17.5617
16.318
7.0294
-1.65713
3.79248
35.6529
97.8721
181.8
267.434
330.243
350.736
322.336
253.87
165.583
80.7883
17.1796
-18.3155
-29.4119
-26.0709
-18.7055
-13.9684
-13.6585
-16.315
-19.7665
-22.8712
-25.6862
-28.5306
-31.0401
-32.0606
-30.4229
-25.9215
-19.6955
-13.6852
-9.53703
-7.71088
-7.37884
-7.12554
-5.91279
-3.62888
-0.885919
1.70876
4.20588
7.36181
12.0084
18.1921
24.7429
29.6865
31.3606
29.5919
26.1728
24.2326
26.7279
34.8116
46.9663
59.4242
67.7404
68.7877
62.2132
50.6572
38.625
30.546
28.9159
33.3523
40.9434
47.6644
50.1685
47.1308
39.5896
30.2248
22.0094
16.921
15.3041
16.1046
17.7477
19.1325
20.2056
21.8396
25.1298
30.523
37.2733
43.5375
47.093
46.3507
41.1883
33.2073
25.2749
20.5188
21.1639
27.6537
38.3727
50.0601
58.774
61.1166
55.3815
42.3084
25.1977
9.23318
0.0290836
1.68127
14.918
36.1535
58.139
72.3667
72.5334
57.6095
32.8807
8.03543
-7.20442
-7.94849
3.10665
16.8866
23.0022
16.3191
1.45662
-7.70737
5.96913
53.9008
134.24
229.943
314.001
359.833
352.129
293.107
201.346
103.948
25.8785
-18.6588
-29.3473
-16.8403
3.9093
20.4794
26.989
24.2414
16.9863
10.3788
7.51171
8.81665
12.946
18.1213
23.0437
27.0416
29.7079
30.5322
28.8931
24.4346
17.5606
9.68497
3.00397
-0.204665
1.49352
7.93198
17.131
25.8276
30.6393
29.4409
22.3635
11.92
2.1247
-3.05628
-1.24627
7.49437
20.8557
35.3302
47.5651
55.3875
58.1492
56.4547
51.6232
45.2442
38.9555
34.3181
32.5821
34.2907
38.9162
44.8453
49.8964
52.2185
51.1239
47.3638
42.6471
38.6605
36.1739
34.7878
33.4757
31.5589
29.4351
28.5119
30.2963
35.1719
41.671
46.8258
47.5586
42.4131
32.6395
21.9255
14.7874
14.3921
20.9398
31.4834
41.3139
46.224
44.5078
37.7096
29.8024
25.266
27.0425
35.3107
47.5289
59.5513
67.1872
67.5295
59.6733
44.81
25.8877
6.99016
-7.56003
-14.3933
-12.3958
-3.60109
7.01943
13.2912
10.788
-0.167548
-13.0854
-16.7208
0.641775
45.538
114.845
194.881
265.078
305.111
302.62
258.183
185.307
105.386
39.7949
2.43994
-4.28774
11.1508
34.0572
49.8185
49.3277
31.6311
3.25926
-25.0277
-42.5965
-42.8019
-25.1482
4.79487
37.5458
63.1254
74.5173
69.9255
52.9932
30.9352
11.403
-0.53725
-3.99732
-1.80828
1.5975
2.76631
0.896583
-2.20258
-3.69264
-1.79036
2.93907
7.89296
10.2064
8.96804
6.53074
7.99814
18.924
42.2416
75.9369
112.728
142.134
154.228
143.563
111.628
66.7367
21.3043
-12.4955
-27.0005
-21.5819
-2.4125
20.4134
37.1974
42.5513
37.2188
27.0369
19.5826
20.1619
29.1359
41.9265
51.6795
53.1693
45.8455
34.3492
26.1685
27.6469
40.4674
60.4922
79.5886
89.4877
85.6889
69.4624
47.0623
26.7192
15.0314
14.513
23.2793
36.6819
49.7788
59.3106
64.3517
65.6468
64.3423
61.007
55.5012
47.6368
38.0645
28.6855
22.1859
20.8294
25.1279
33.1669
41.089
44.6641
41.274
31.3395
18.4018
7.68851
3.76013
8.34493
19.4446
32.1956
41.0951
42.4999
36.1661
25.1087
13.9494
6.70033
5.17239
8.76451
15.5591
23.899
33.4005
44.7808
58.6818
74.3486
89.1586
99.4833
102.52
98.0535
89.0442
80.531
77.2953
81.4657
91.3444
102.115
108.094
105.376
93.5348
75.6158
56.5618
41.0457
31.8541
29.5075
32.9777
40.7289
51.2526
62.8067
72.8338
77.9666
75.2718
64.5146
50.2512
42.1499
52.5017
91.2751
160.606
251.426
344.389
415.511
444.655
423.437
359.026
271.96
188.68
131.856
112.555
127.427
161.767
196.752
217.428
218.021
202.662
181.835
166.686
163.982
173.78
190.371
205.505
212.09
206.725
190.24
166.476
140.225
115.38
93.9943
76.3709
61.8492
49.7465
39.9735
33.0824
29.7929
30.2732
33.576
37.5854
39.6252
37.5598
30.9152
21.4304
12.628
8.44255
11.4597
21.6172
36.0824
50.467
60.8261
65.4187
65.279
63.2717
62.1592
62.8034
63.5939
61.4998
54.175
41.8596
27.8591
17.1633
13.8706
18.8536
29.0563
38.928
43.2674
39.8947
30.6252
19.9911
12.4855
9.99273
10.956
11.7626
9.43388
3.86111
-1.9158
-3.66226
1.04877
10.7258
20.2151
23.3572
16.5388
0.977971
-17.7282
-32.6239
-39.2223
-37.8549
-33.1553
-31.0592
-35.2392
-45.1958
-57.1082
-66.7228
-72.2306
-75.1439
-78.606
-84.4114
-91.0097
-94.1752
-90.1506
-79.1551
-66.5199
-59.9783
-64.1303
-75.2964
-80.3652
-61.3547
-4.1775
92.6259
213.963
331.73
414.732
440.616
404.309
319.245
211.183
107.881
29.5014
-16.3333
-33.6093
-32.7831
-24.6819
-16.382
-10.3149
-5.93155
-2.14999
1.07343
2.7259
1.84066
-1.31171
-4.84694
-5.98675
-2.47273
6.10454
17.7782
28.7909
35.0742
33.9805
25.4883
12.3123
-1.15767
-10.6122
-13.4444
-9.4832
-0.559229
10.7359
22.3214
33.2189
43.2656
52.3646
59.9873
65.4052
68.5172
70.5989
74.2371
82.2178
95.8778
113.895
132.333
146.052
150.784
144.805
129.405
108.066
84.9637
63.6201
46.2495
33.7995
26.3159
23.2517
23.6138
26.0983
29.3764
32.4819
35.0485
37.1703
38.9398
40.0184
39.6427
37.1741
32.8577
28.2088
25.6292
27.3683
34.4295
46.1102
60.462
75.3432
89.3489
102.033
113.389
123.118
130.353
134.132
134.265
131.889
129.155
128.13
129.656
132.989
136.567
139.383
141.915
145.745
151.877
158.822
161.966
155.213
134.592
102.124
67.6861
47.2293
57.4206
108.622
199.219
313.998
427.696
512.623
547.551
524.508
450.99
346.974
238.101
147.688
90.3898
69.4033
77.5925
101.53
126.631
141.564
140.735
124.533
97.7902
67.3514
39.6618
19.062
7.0917
2.75276
3.43153
6.06426
8.15193
8.35691
6.59412
3.7027
0.896079
-0.78541
-0.84555
0.555412
2.73675
4.80151
5.99047
5.96016
4.88468
3.34239
2.03325
1.4521
1.67334
2.3559
2.96553
3.09094
2.67203
2.00544
1.52488
1.49453
1.81445
2.07327
1.82873
0.945169
-0.234826
-1.01859
-0.744959
0.793146
3.14459
5.3666
6.50734
6.15953
4.77657
3.54759
3.8504
6.52675
11.3354
16.8752
21.0615
21.9803
18.7578
12.0538
3.93402
-2.8609
-5.96253
-4.29772
1.51459
9.46774
17.026
22.1272
23.8543
22.4857
18.9823
14.2862
8.89986
3.00487
-3.01365
-8.1
-10.5962
-8.9789
-2.88852
6.24646
15.5484
21.972
23.837
21.6286
17.4526
13.4048
9.94295
5.52828
-1.91347
-12.4224
-22.0384
-23.1477
-7.66044
28.2419
80.3466
136.095
178.558
193.214
174.352
127.836
68.7602
15.0611
-19.7543
-31.3133
-24.5266
-9.63605
3.39545
9.18937
8.09097
4.21424
2.06919
3.88255
8.91687
14.6956
18.9503
20.9102
21.2232
20.8048
19.5842
16.0992
8.26288
-5.15778
-23.2797
-42.8754
-59.4217
-68.963
-69.8828
-63.7008
-54.4798
-47.0831
-45.0623
-49.1243
-56.8615
-63.8544
-65.6467
-59.7155
-46.5859
-29.6452
-13.788
-3.51379
-1.27846
-6.72733
-17.022
-28.0233
-35.8011
-37.8955
-33.926
-25.4312
-15.0968
-5.7141
0.743058
3.61856
3.52908
1.86393
0.0874705
-0.845322
-0.732975
0.0150011
0.766953
1.06607
0.833342
0.31277
-0.151838
-0.341199
-0.252256
-0.0330324
0.157688
0.250828
0.265162
0.232087
0.134301
-0.0731803
-0.372163
-0.610625
-0.548544
-0.0327891
0.807059
1.51307
1.50999
0.502568
-1.18957
-2.64641
-2.82237
-1.27501
1.31662
3.29442
2.92072
-0.394256
-5.32672
-9.01456
-8.62905
-3.37389
4.357
9.68557
7.85083
-2.49909
-17.2481
-27.5553
-23.5734
0.413984
42.0662
90.5799
130.451
147.877
136.779
101.491
54.7857
12.2379
-14.2793
-20.8884
-11.9977
3.09902
15.2361
19.4018
16.0259
9.40927
4.62222
4.73334
9.7036
17.1493
24.1451
28.8525
31.1097
31.8893
32.2003
32.2339
31.2618
28.2563
22.7497
15.3556
7.62817
1.3599
-2.25501
-3.11847
-2.14063
-0.667597
0.217657
0.134772
-0.607033
-1.38703
-1.73386
-1.58337
-1.21537
-0.96664
-0.941745
-0.90795
-0.411572
0.994353
3.56541
7.30382
11.9812
17.1518
22.1146
25.8981
27.4019
25.7664
20.8596
13.6084
5.89757
-0.0431045
-2.5249
-1.10596
3.29937
9.00796
14.5377
19.3905
24.167
29.929
37.205
45.2787
52.2597
55.9558
55.0626
49.9505
42.5443
35.3196
29.9793
26.5888
23.6989
19.4088
12.7596
4.62359
-2.48944
-5.68261
-3.33862
3.7247
12.326
18.3212
18.7256
13.5032
6.03381
1.83593
5.959
20.1766
41.358
62.0063
73.0381
67.8144
45.7026
13.4362
-16.6556
-31.1319
-20.9292
14.4848
66.2212
118.931
156.504
168.115
152.057
115.765
72.1972
34.3569
10.4719
1.83924
3.92769
9.73939
13.4975
12.8639
8.91724
4.40289
1.58254
0.97365
1.51358
1.73615
0.993849
-0.118825
-0.341833
1.17585
4.1105
7.05546
8.40509
7.42077
4.75079
2.0473
0.926704
1.95359
4.3116
6.37432
6.80068
5.43487
3.41253
2.38704
3.3686
5.94369
8.432
8.9585
6.82094
3.28853
1.24376
3.73597
12.1792
25.2065
38.9048
48.4374
50.2951
44.0349
32.5807
20.8816
13.5687
12.776
17.2135
22.9424
25.4433
21.9319
12.7845
1.41543
-7.26786
-9.03598
-2.10052
12.2803
30.4895
48.0635
61.2622
68.0452
68.2089
62.8903
53.8849
43.1735
32.7798
24.7775
21.1407
23.254
31.2048
43.266
56.0438
65.5056
68.6185
64.8668
56.7912
49.0546
46.2863
50.7055
60.8138
72.006
78.9226
78.3073
70.6994
59.8615
50.1947
43.7443
38.8674
31.7612
20.2309
7.37286
2.41947
17.3294
60.2098
128.908
208.653
275.899
307.323
289.948
227.405
139.028
51.9976
-9.76119
-34.6796
-26.5703
-0.698334
24.5664
36.1198
30.6593
13.9147
-4.1119
-14.8832
-15.1258
-7.29403
2.79236
9.38884
9.50424
3.78769
-4.33021
-10.4646
-11.1415
-5.0457
6.60342
20.5133
32.4187
38.5176
36.8257
27.9702
15.0528
2.53104
-5.49533
-6.88683
-2.24316
5.49645
12.4361
15.4345
13.3615
7.37612
0.195772
-5.20743
-6.84091
-4.3334
1.18858
7.78707
13.5444
17.1483
18.0545
16.3146
12.3228
6.72179
0.537289
-4.60769
-6.47958
-2.65576
8.60656
27.3343
51.1249
75.2353
93.6885
101.173
95.0926
76.9139
52.1336
28.6689
14.1521
13.1371
25.3701
45.9007
67.0447
81.3827
84.5016
76.3127
60.4864
42.469
27.1968
17.6357
14.657
17.8918
26.6489
40.0938
56.6005
72.9928
84.6877
87.2406
78.737
61.5954
42.3304
28.8707
26.5839
35.2566
49.0757
60.0813
63.4379
61.4779
63.7948
82.6996
126.049
191.247
263.957
322.802
348.131
330.72
276.116
202.492
133.088
86.9188
72.0364
84.1107
110.307
135.978
150.726
151.276
140.545
124.252
107.305
91.8001
77.2132
62.105
45.983
30.1804
17.3618
10.0902
9.34504
13.8204
20.3811
25.4665
26.7849
24.4874
21.2161
20.9035
26.792
39.5861
56.7024
73.143
83.7292
85.6678
80.1206
71.8454
66.9434
69.7851
80.7039
95.7109
108.432
113.273
108.166
95.4766
80.7024
69.7279
66.1409
69.933
78.0713
86.4102
91.8051
93.3628
92.3791
91.2411
92.0153
95.4184
100.524
105.149
106.63
102.681
92.125
75.3473
54.3825
32.5323
13.5398
0.518963
-4.99271
-3.47138
2.86513
10.9204
17.7849
21.5543
21.6287
18.5273
13.481
8.07627
4.0446
3.06048
6.34879
14.0728
24.7822
35.3974
42.0819
41.8756
34.3876
22.545
11.6768
7.04609
10.9299
20.8848
30.4844
32.6008
23.8058
7.53534
-6.04918
-4.04232
22.8982
74.9144
140.986
202.05
238.144
236.462
196.644
130.898
58.9849
0.454247
-32.3545
-37.6616
-22.9762
-0.405268
18.91
28.7034
28.5041
21.8513
13.2872
5.88469
0.42831
-3.71734
-6.94716
-8.18852
-4.96138
5.24113
23.0362
45.8681
68.2686
83.7806
87.7421
79.563
63.2629
45.8593
34.301
32.4429
39.5794
51.2536
61.8461
67.498
67.7954
65.3964
63.9896
65.9089
70.8456
76.3505
79.6785
79.7174
77.741
76.5231
78.4114
83.6177
89.8311
93.4194
91.4878
83.55
71.8235
60.0081
51.3102
46.8715
45.4575
44.4692
41.5763
35.9788
28.6257
21.4045
15.9244
12.6878
11.1156
10.3001
9.89774
10.5126
13.2899
18.9799
27.1099
35.875
42.932
46.7119
47.4939
47.5477
50.1468
57.9053
71.328
88.4038
105.513
119.17
127.615
131.333
132.243
132.097
131.194
128.297
121.841
111.596
99.4811
88.7401
81.7514
77.9075
73.2367
62.5656
43.3674
19.0533
-0.693245
-3.53105
19.28
67.1393
128.252
183.255
213.019
206.968
167.723
109.734
52.6002
12.5339
-3.83268
-0.538546
11.6305
21.466
22.5629
15.0477
3.64591
-6.09583
-10.9722
-11.0686
-8.51803
-5.38212
-2.21786
1.87818
8.08328
16.563
26.0338
34.4129
40.0366
42.6191
43.3894
44.4203
47.6175
53.9198
63.0097
73.4959
83.3619
90.5144
93.3833
91.5399
86.1737
80.1238
77.2035
80.856
92.6066
111.051
132.006
149.929
160.052
160.248
151.72
138.178
123.919
111.823
102.228
93.2284
82.1342
67.2722
49.1584
30.4532
14.77
4.99088
1.96526
4.22117
8.77455
12.5686
13.7975
12.4855
10.1144
8.58362
9.08996
11.5029
14.5107
16.4064
16.0755
13.6752
10.6696
9.19726
11.0572
16.7708
25.1624
33.7028
39.5407
40.8213
37.6893
32.4129
28.4124
28.5138
33.2547
40.2165
44.9699
43.3811
34.1499
20.0764
7.04187
0.921027
3.98605
12.9841
20.4284
18.9058
6.28118
-11.2711
-20.6902
-7.90539
34.4444
101.478
176.018
234.648
257.299
235.825
177.398
101.168
30.0137
-18.4869
-37.6621
-31.8476
-11.8594
11.1335
30.0548
42.9366
50.9765
55.6442
56.9218
53.564
44.7307
31.4833
16.9115
4.73996
-2.63723
-5.36722
-5.79044
-6.75814
-9.68041
-13.5115
-15.2839
-11.8763
-2.01046
12.6228
27.705
37.9365
39.2117
30.3586
13.7268
-5.57725
-21.4798
-29.0623
-26.2302
-14.3127
2.62875
19.5119
32.2629
39.2893
41.7347
42.4082
43.9454
47.1885
50.6907
51.6584
47.8213
39.1409
28.295
19.5386
16.4932
20.0928
27.9028
35.2856
37.8397
33.7853
24.9733
15.9594
11.6693
14.9454
25.2858
39.3526
52.8198
62.4356
67.1804
68.0567
66.8968
65.0898
63.0298
60.488
57.4545
54.712
53.6588
55.4831
60.2806
66.7679
72.8437
76.675
77.6345
76.529
75.0316
74.7329
76.4018
79.8022
83.9578
87.4678
88.5803
85.155
75.0033
57.0198
32.9176
8.60796
-6.07926
-0.125388
33.9977
95.6116
173.618
248.597
299.072
309.624
277.24
212.813
136.876
71.3787
31.256
19.5884
28.2905
43.5268
52.8386
50.4305
38.3608
23.689
13.6624
11.7215
16.2665
22.3824
25.1157
22.2882
15.3909
8.35729
5.17459
7.74994
15.0862
23.9871
30.7329
32.8229
30.0286
24.4298
19.5424
18.9198
24.7199
36.7229
52.1886
66.725
75.9706
77.4786
71.9488
63.1007
56.0717
54.9978
60.9769
71.5302
81.9347
87.7555
87.1779
81.7901
75.3446
71.2299
70.2009
69.8096
65.9715
55.7808
39.8524
22.6681
10.5425
8.25396
16.2405
30.0176
42.2587
46.4876
40.4216
27.1881
13.7912
7.65791
13.0535
29.1261
50.4214
69.4395
79.8792
79.0452
68.4706
52.7342
37.2407
26.0408
20.5645
19.6179
20.4368
20.2218
17.4783
12.6339
7.73061
5.37188
7.43208
14.1572
24.1201
35.0631
45.1617
53.9503
62.2949
71.3594
81.207
90.0585
94.974
93.8871
87.9305
82.5044
85.9544
105.961
145.164
198.299
252.69
292.37
304.25
283.555
235.971
175.456
118.752
79.1343
62.1422
64.8823
78.701
93.5357
101.809
100.371
90.2227
74.8089
58.0508
42.9814
31.213
22.9889
17.4832
13.2107
8.60586
2.78483
-3.74461
-8.87929
-9.59391
-3.42292
9.87869
27.4295
43.778
52.9172
50.9274
37.9591
18.4839
-0.436568
-12.1129
-13.0301
-4.16243
9.78044
22.7365
30.0949
30.5756
26.3752
21.6628
20.2913
23.8891
31.1989
38.8865
43.2507
41.968
35.0521
24.6783
14.0994
6.26121
2.76912
3.58006
7.39687
12.4364
17.1594
20.6785
22.7827
23.7002
23.7875
23.2942
22.2709
20.6096
18.1715
14.9379
11.1177
7.15692
3.62678
1.02897
-0.396292
-0.758691
-0.451059
0.040706
0.349413
0.349454
0.138214
-0.0904404
-0.189744
-0.135545
-0.0061803
0.0961258
0.117119
0.0709013
0.00968517
-0.0223992
-0.0155076
0.0113039
0.0329627
0.03689
0.0260752
0.0109937
0.000867638
