141.181
126.999
120.817
122.075
126.027
127.245
123.17
115.238
107.259
102.825
103.408
108.174
115.408
123.102
129.35
132.244
130.807
126.331
122.43
123.504
131.875
145.726
159.458
166.605
163.807
153.115
141.197
135.673
140.405
153.274
167.411
175.259
172.834
161.121
144.51
127.755
113.498
102.316
94.0673
89.272
89.1693
94.42
103.344
111.672
114.011
106.682
90.6781
72.1809
59.9558
60.9012
75.5936
97.2185
114.969
119.719
109.105
88.9885
70.1871
62.5497
69.6355
87.1733
106.076
117.794
119.098
112.921
105.417
101.331
101.364
102.75
102.126
98.8407
95.6532
96.6182
104.054
116.204
127.664
132.289
127.071
114.317
100.673
93.6438
97.1165
108.682
120.439
122.908
110.343
84.7261
55.6011
35.3396
32.3133
45.5173
64.3938
75.1978
70.489
56.0947
50.2426
74.319
139.776
238.598
343.468
418.8
437.171
392.258
301.666
198.236
114.634
69.6332
62.6252
77.8574
94.9598
99.3067
87.511
66.3671
47.3622
40.0434
47.2596
64.53
82.9206
93.9177
93.5939
84.5118
73.6566
67.6072
68.6405
73.4416
75.9271
72.3107
64.6753
60.1802
65.8779
82.8118
103.615
116.38
112.406
92.5975
67.5826
51.2724
51.9941
67.0084
84.7064
92.5354
85.2704
67.8957
51.4631
45.3163
51.0082
62.5582
71.8089
74.5053
72.6822
71.9214
76.2244
84.5655
91.8761
93.159
87.3103
77.7877
69.7468
66.2939
66.8975
68.3913
67.5977
63.4457
57.2037
51.0562
46.4061
43.6617
42.8124
44.2082
48.3294
54.9111
62.3048
67.684
68.772
65.1419
58.6704
52.5832
49.5755
50.5195
54.3035
58.5963
60.8548
59.3223
53.7572
45.8011
38.5928
35.7152
39.5074
49.4333
61.8403
71.5903
74.8099
71.211
64.2855
59.3777
60.3182
67.126
76.0227
81.846
81.5243
75.9549
69.4067
66.6891
69.921
77.0469
83.0712
83.3659
76.4457
65.1269
54.8713
50.2385
51.9317
56.3734
58.3992
54.9413
47.3109
40.603
40.8634
51.9473
74.5327
107.167
147.871
194.471
243.241
286.977
314.93
316.333
285.911
228.051
156.763
90.3919
44.1525
24.1927
26.4978
40.6674
55.7126
64.803
66.6982
64.2065
61.5284
61.826
65.8612
71.8012
76.2443
75.9265
69.659
59.8714
52.1033
52.1956
62.772
80.7045
97.9667
105.719
99.3529
81.665
61.4731
48.6602
48.4116
58.6507
72.1225
81.6266
84.5024
83.7137
85.1649
93.0731
106.876
121.494
130.852
131.652
125.392
117.359
113.277
116.018
124.399
134.399
141.376
142.154
136.077
124.698
110.888
97.7198
87.7716
82.4046
81.3907
83.1858
85.452
86.0509
83.817
78.9001
72.5505
66.4231
61.9578
60.033
60.9059
64.1303
68.2911
71.1253
70.2771
64.4852
55.0073
45.5916
40.9224
44.3309
55.9022
72.5702
89.7024
103.207
110.871
112.428
109.109
103.226
97.3458
93.9238
94.36
97.8524
100.844
98.3321
86.7049
66.753
44.5746
29.4162
28.7761
43.6184
67.0128
87.3919
94.9447
87.1214
70.5498
57.2688
57.7869
74.6137
100.341
121.511
125.85
109.58
79.5491
49.4002
31.7488
31.4574
44.0335
60.5544
75.4271
91.4026
117.841
163.006
225.201
289.352
332.511
335.012
291.715
215.439
130.728
61.9845
22.8289
12.6519
20.8414
34.9982
47.377
56.4237
64.4418
73.408
82.3677
87.9377
86.5522
77.1869
62.1715
46.74
36.8808
36.7681
46.7401
62.5485
76.3163
79.3904
66.6448
39.5732
6.6343
-20.2833
-31.2994
-23.3211
-1.32716
24.768
44.896
53.4716
50.7306
41.3787
31.458
25.6621
25.887
31.6851
41.4415
53.335
65.6055
76.4557
84.1065
86.9395
83.4757
72.5858
54.9058
33.6287
15.1389
7.49156
16.5139
41.4255
73.4261
98.4717
104.022
85.7845
50.8253
14.2216
-8.30774
-8.72399
9.94804
36.3511
57.2982
64.9641
59.8361
48.6316
39.2347
35.9545
38.2314
42.3981
45.1316
45.6507
46.3333
50.807
61.2257
76.0593
90.0298
96.6495
91.6012
75.9635
56.098
40.8106
36.6431
44.6668
60.7296
78.6624
93.8658
104.999
112.591
116.092
112.621
99.352
78.2465
58.6255
53.8294
72.822
112.349
155.796
181.523
176.545
145.833
110.401
94.5826
109.982
147.543
182.853
192.323
168.858
126.952
92.9739
88.351
117.059
164.811
210.412
239.922
253.732
262.871
278.444
302.736
327.413
339.64
330.309
298.702
251.427
198.135
147.442
105.642
77.6771
67.6062
76.7593
101.203
131.482
155.403
163.552
154.32
134.74
116.329
109.097
116.517
134.113
152.09
160.077
151.749
127.35
93.387
60.0161
37.0003
29.8882
37.9325
54.6289
51.4062
43.4024
50.3067
71.276
99.0753
124.11
139.415
143.267
138.637
130.438
122.846
118.504
118.93
124.916
136.132
150.16
162.578
168.594
165.672
155.293
142.343
132.307
127.978
127.833
127.192
121.554
109.788
95.0298
82.8398
77.6173
79.3154
82.8842
80.9978
68.7063
47.6181
26.5512
17.5711
29.3127
61.1586
101.774
133.864
142.841
124.627
88.1249
50.7804
29.215
30.4
48.645
69.7031
79.486
71.9235
51.5861
29.8694
17.404
17.817
26.3259
33.8875
33.6537
25.5902
16.3405
14.5307
24.9992
45.4013
67.45
81.6765
82.5985
71.5874
55.7605
43.907
42.0982
51.1039
66.4259
80.8762
88.1397
85.6059
75.243
62.0177
50.6218
42.2692
33.7528
20.0325
-0.545164
-21.5994
-28.576
-4.69813
58.8783
154.393
256.519
331.334
351.42
309.183
220.942
119.067
36.4373
-7.98619
-15.2232
-1.74853
12.3343
14.5574
4.83253
-7.81369
-12.906
-5.79288
9.92547
25.4109
32.3404
27.7205
14.9451
1.17626
-7.03203
-7.23583
-1.80183
3.9993
5.17876
-0.516839
-11.8696
-25.0325
-35.1889
-38.2244
-31.8554
-16.5128
4.21071
24.077
36.0592
35.1696
21.1878
-0.517613
-20.9207
-31.521
-28.4893
-14.2869
4.17432
19.7743
29.1339
33.8615
38.518
46.9445
59.6248
73.6506
85.0009
91.0228
91.7073
89.1554
85.9823
84.0364
84.0789
85.9858
89.0741
92.1227
93.339
91.0529
85.1368
77.859
73.1733
74.5338
82.4282
93.3621
101.488
101.956
94.199
82.439
73.0846
70.7223
75.4652
83.2423
88.7632
88.9863
84.769
79.6828
77.0272
77.3436
78.2656
76.5784
71.0109
63.5364
58.2275
58.4048
64.0981
71.4946
74.8112
69.5791
55.3449
36.3373
19.5713
11.3936
14.3564
25.9137
39.7054
48.593
48.018
37.6613
21.0302
3.38382
-10.6314
-18.3384
-19.2569
-14.7174
-7.32334
-0.400216
2.80462
0.459307
-6.65949
-15.1168
-20.5438
-20.2589
-15.0028
-8.27671
-2.91236
2.40555
14.0451
39.8861
83.1805
137.652
188.024
216.478
211.5
173.955
116.663
57.9714
13.3119
-10.4162
-15.1427
-8.02857
2.87007
11.2496
13.0315
6.25943
-8.43082
-26.9433
-42.3382
-47.7917
-40.7443
-25.3833
-11.1271
-7.37149
-17.4985
-36.3477
-53.0962
-58.0067
-48.3588
-30.0156
-13.5251
-7.53341
-13.7034
-26.1647
-35.5031
-34.4939
-21.9778
-2.96873
14.5825
11.3082
14.3725
20.3796
25.9075
27.1037
22.7322
15.6595
11.4124
14.4509
24.6782
36.841
43.5692
40.3882
29.1237
17.1738
13.0804
20.949
37.6897
54.844
63.7751
60.8839
49.458
37.2069
31.2024
33.5685
40.6378
45.7098
43.3734
32.7557
17.8733
5.22724
0.16286
4.00146
13.4572
22.5418
25.9215
21.8922
13.3814
6.38782
6.47607
15.4595
30.0681
43.6275
49.7854
46.0403
34.9614
22.3578
13.627
10.8248
12.0172
13.2821
11.8136
7.88835
4.31682
4.05329
7.89529
13.8771
18.8308
20.8589
20.8446
21.7663
26.3322
34.7308
44.1368
50.3069
50.4981
45.3875
38.7267
35.0301
36.7763
43.0635
50.5701
55.9132
57.5967
56.3728
53.9976
51.6258
49.2579
46.3202
42.6888
39.2125
37.1324
36.9381
37.8641
38.5628
38.2283
37.1587
36.3034
36.1223
36.386
37.4936
42.2528
56.3853
86.0073
132.887
190.373
243.331
273.301
266.991
223.277
154.609
81.7637
24.6341
-5.86524
-10.7117
0.39404
15.4969
26.1662
29.8257
28.3657
25.0052
22.0662
20.5914
21.0058
23.7814
29.0882
35.7997
41.2921
42.6247
38.5537
30.9363
24.2787
23.2886
30.0107
42.4365
55.6004
64.3615
66.3059
62.6925
57.0837
53.0128
52.2652
54.6556
59.0157
64.4043
70.2999
76.1105
80.8188
83.2398
83.0742
81.6845
81.5308
84.5235
90.3919
96.4326
99.0728
96.3363
89.2824
81.2415
75.3592
72.1644
69.0272
61.9302
48.4521
29.8144
10.7275
-3.16456
-8.48359
-5.95811
0.243529
5.08017
5.52905
2.11563
-1.92174
-2.91138
0.90107
8.22527
15.5687
19.2806
17.5532
11.3263
3.61946
-2.2
-4.11739
-2.29341
1.42302
4.69555
6.09498
5.89175
5.77908
7.87173
13.4274
21.8796
30.7849
36.7818
37.1822
31.5124
22.1949
13.7454
10.6907
15.2729
26.0734
38.555
47.4369
49.5694
45.5539
39.221
35.1268
35.5427
39.0488
41.6479
39.5885
31.9286
21.2098
11.7952
7.23993
8.38251
13.3957
19.172
22.854
22.4892
17.0014
6.58728
-5.82698
-13.184
-4.89183
29.1009
91.8233
173.978
254.05
305.643
308.948
260.65
176.457
84.3099
11.8597
-25.1707
-27.6835
-9.45888
11.912
23.9369
23.4101
14.903
5.87076
1.85303
4.31895
11.3206
19.7649
27.3389
33.1441
37.2366
39.7666
40.3111
37.9578
32.0259
22.8723
12.4322
3.81357
0.089217
2.75464
0
0
0
-0
-6e-006
-1.9e-005
-3.8e-005
-4.9e-005
-4.2e-005
-2.4e-005
-1.8e-005
-4.7e-005
-0.000115
-0.000192
-0.000223
-0.000176
-8e-005
-2.7e-005
-0.000106
-0.000327
-0.000578
-0.000671
-0.000477
-5.6e-005
0.000302
0.000169
-0.000865
-0.003045
-0.004769
0.010474
0.039638
0.049274
-0.001502
-0.100248
-0.172887
-0.136417
-0.000539
0.150756
0.160333
-0.08244
-0.4763
-0.733821
-0.57508
0.002099
0.622396
0.725115
-0.04224
-1.41168
-2.48867
-2.21829
0.019679
4.0245
8.81018
13.0909
15.9852
17.3382
17.5517
17.1909
16.4923
15.2068
12.865
9.30691
5.06258
1.41917
-0.089802
1.4849
5.75082
11.002
14.9023
15.825
13.9493
11.3864
11.0496
14.9088
22.63
31.3731
37.2154
37.2224
31.09
21.4262
12.4831
8.1078
9.84208
16.1132
22.8559
25.5406
21.9713
14.7055
11.3015
21.8213
53.8511
107.104
170.938
226.855
255.811
246.866
202.669
138.486
75.1596
29.5709
7.99711
5.52601
11.105
14.6532
12.0662
5.61082
0.483792
0.537819
5.79786
12.9602
17.9014
18.3385
14.8897
10.3984
8.06444
9.71271
14.8309
21.0197
25.2746
25.4989
21.5297
15.0839
8.67131
4.25302
2.36672
2.07458
1.95671
1.18139
0.030463
-0.563887
0.024129
1.52314
2.89555
3.16236
2.31836
1.48342
2.2543
5.65546
11.169
16.8224
20.1377
19.468
15.1532
9.57455
6.16795
7.69055
14.6582
24.747
33.7682
37.7291
34.9336
26.9347
17.7689
11.8201
11.4381
15.6849
21.0773
23.7495
21.6524
15.6296
8.74244
4.29559
3.9154
6.77035
10.2201
11.6232
9.9562
6.40084
3.56283
3.76748
7.61337
13.495
18.5956
20.7105
19.7705
17.9101
18.1082
22.0914
28.959
35.4545
37.9781
34.9786
28.1813
21.6668
19.48
23.0914
30.5293
37.8506
41.6775
41.28
38.7678
37.369
39.0735
43.3302
47.5773
49.2819
47.8523
45.1896
44.3282
47.274
53.4535
59.8762
62.9813
60.9325
54.7688
47.4277
41.546
37.568
33.5331
27.1748
19.0533
14.1763
20.8014
46.3765
92.4839
152.114
210.956
252.539
264.598
243.729
196.315
135.654
77.0507
32.9612
9.92413
7.66085
20.2057
38.4828
53.4721
59.2226
54.7073
43.5653
31.8816
24.9264
24.5164
28.4572
32.288
32.3966
28.2255
22.4353
19.1194
21.229
28.809
39.1547
48.374
53.3328
52.7941
47.5928
39.7632
31.4903
24.4971
19.7493
17.5613
17.7324
19.8232
23.3431
27.9453
33.5877
40.3621
48.1552
56.3254
63.4644
67.9335
68.6582
65.6917
60.3928
54.7927
50.6335
48.5088
47.6455
46.5233
43.8861
39.3666
33.4191
26.6672
19.3285
11.2627
2.82366
-4.42167
-7.82133
-4.84007
5.19705
19.9052
34.4464
43.765
45.1488
39.6234
31.3108
24.9312
23.1029
25.1403
27.9362
28.2218
24.7749
19.0517
13.9538
11.6706
12.3803
14.3082
15.2107
14.2037
12.4108
12.3301
16.0162
23.4491
32.1954
38.5904
39.7625
35.3405
27.8164
21.3519
19.4313
23.1056
30.3471
37.081
39.2916
35.1507
25.921
15.3289
7.74836
6.04102
10.1488
17.2011
23.1215
24.9387
22.6667
19.4168
19.5593
25.5145
35.202
42.3814
40.6134
28.7336
14.4272
12.6253
38.0168
95.3648
173.563
247.878
290.508
284.115
230.756
150.858
72.9142
19.685
-1.23648
2.17299
14.1106
21.1081
18.3836
9.64748
1.83804
-0.565628
2.05468
6.02706
7.92283
7.06737
5.34648
5.21216
7.70658
12.0986
16.8474
21.0524
24.9361
29.1731
33.7212
37.4516
38.7405
36.6131
31.7315
26.1078
21.8696
20.1051
20.3764
21.4007
22.4385
24.1344
28.1553
35.9307
47.0172
58.5842
66.6535
68.5037
64.6774
59.1028
57.0213
61.8277
72.9458
86.0099
95.215
96.3234
88.5516
74.3733
57.8244
42.6049
31.0697
24.4043
22.9195
25.9904
31.593
36.4896
37.4766
33.2527
25.7773
19.5838
19.0451
25.3473
35.2695
43.0279
44.0884
38.3084
30.1115
25.3536
27.0554
33.3184
38.6928
38.2632
31.2448
21.4283
14.4895
14.0291
19.4814
27.1516
33.2502
36.4371
38.0317
40.0026
42.7633
44.8155
44.2621
40.8747
36.771
35.0256
37.353
42.6611
47.6583
49.1335
46.2171
40.9435
36.8236
36.508
40.1705
45.507
49.0982
48.28
42.2649
32.5727
22.4284
15.5116
14.2341
18.2339
23.8241
25.6038
20.1607
9.80103
3.6248
14.2185
50.6465
111.401
181.907
238.968
260.956
238.184
177.89
100.97
32.1914
-10.4333
-21.9558
-9.90238
11.7783
29.9835
37.3834
33.1455
20.9478
6.30649
-5.28884
-9.55668
-4.33475
9.3015
26.6334
40.5949
44.7607
36.7841
20.2052
3.11967
-6.00701
-2.80064
10.7858
27.7644
40.1181
43.0735
37.3016
27.8394
20.8484
20.2391
25.8792
34.3233
41.2674
44.1571
43.5426
42.4023
43.9729
49.6241
57.9449
65.6172
69.6171
69.2222
66.4885
64.8184
66.662
71.7262
77.1123
79.2944
76.7126
70.8474
65.104
62.3398
62.763
63.8669
62.3594
56.7794
48.8559
42.3955
40.5107
43.3135
47.4922
48.331
42.8318
31.7302
19.3653
11.4058
11.7168
20.1872
32.7686
43.6332
47.9743
44.2681
34.7957
24.2931
17.5035
16.9117
21.8691
29.3294
35.7553
38.9927
38.9338
36.9473
34.5522
32.3722
30.2343
27.9119
25.9079
25.6481
28.6203
35.2116
44.1881
53.0943
59.2166
60.6629
57.0555
49.4428
39.7531
30.3518
23.6835
21.7036
25.1985
33.1099
42.3436
48.695
48.4335
40.1304
25.9653
11.7857
5.73224
15.8294
46.8031
97.541
160.151
220.959
264.134
276.832
254.045
200.989
131.883
65.1873
16.9446
-4.87357
-2.60116
13.3087
29.5936
36.2007
30.2405
16.0809
1.93662
-4.94489
-1.98782
8.11082
19.6221
27.4767
30.0451
29.295
28.6351
30.1691
33.1674
34.8181
32.6936
26.9343
20.4765
17.1109
18.8656
24.3937
29.5449
29.8875
23.7242
13.2133
3.16291
-1.89085
-0.3705
5.59782
11.783
14.5624
13.2143
10.1802
9.31748
13.3151
21.8007
31.4097
37.928
38.8369
34.9114
29.8169
27.8161
31.0457
38.2647
45.5435
48.6411
45.4061
36.6981
25.5529
15.2628
7.76474
3.39071
1.62461
2.02436
4.3806
8.16592
12.0355
14.0193
12.9249
9.49764
6.36016
6.58468
11.5172
19.5015
26.6049
29.1224
26.0738
19.9328
15.0657
14.9004
19.6689
26.2732
30.2291
28.7218
22.3533
14.8015
10.5686
12.4246
19.9998
30.3393
39.8873
46.6708
51.2751
56.0561
63.2617
73.0457
82.7121
88.0024
85.343
73.8218
55.7268
35.3341
16.8602
3.14173
-4.654
-6.32095
-2.29631
5.90422
15.1024
21.2838
22.2286
20.6654
25.0431
46.0343
89.6134
150.755
212.5
252.242
252.875
212.063
144.03
72.6337
19.5566
-5.30689
-5.89931
5.52002
17.0222
23.0822
24.9375
26.456
29.4405
32.0325
30.6675
23.5118
12.2917
1.31462
-5.32893
-6.16481
-2.72608
1.91165
5.16241
6.22474
6.00555
6.08913
7.91826
12.031
17.8141
23.6506
27.3466
27.0043
22.1121
14.0334
5.58775
-0.357317
-2.50532
-1.80969
-0.638939
-0.874687
-2.31611
-2.63957
0.843569
8.98468
19.6272
28.6901
32.7164
31.2596
27.2753
25.1795
28.0604
35.8278
45.5348
53.5047
57.4948
57.3755
54.2404
48.8754
41.1377
30.8484
19.0566
8.46535
2.17943
1.72859
5.8766
11.3713
15.2387
16.8018
17.8848
20.8461
26.2021
31.6425
33.4088
29.3244
20.8454
12.3899
8.52055
10.6647
16.0539
19.6051
17.602
10.4805
2.74473
-0.160941
4.43403
14.6092
25.2629
31.5725
32.1367
29.4679
27.7849
29.7967
34.7616
39.1182
39.1574
33.8535
25.7779
19.509
18.5108
22.7352
28.5026
30.7301
26.2328
15.9056
4.3378
-3.05906
-3.73739
0.09087
2.9451
0.356741
-6.62566
-9.8339
2.69205
39.7463
100.055
169.803
226.954
250.722
231.46
175.584
102.874
37.4674
-2.7806
-12.787
-0.204543
20.3642
35.1953
37.3306
28.0571
14.2912
4.12444
2.78779
10.5842
23.4223
35.2213
41.0499
39.515
33.1969
27.1018
25.638
29.95
37.3465
43.0389
43.0373
36.4306
25.6711
14.8533
7.25047
3.76633
3.26987
4.122
5.57032
7.96463
11.7659
16.4594
20.296
21.2817
18.7731
14.3231
11.0599
11.9041
17.6856
26.4386
34.2858
37.5344
34.6983
27.3416
19.2622
14.4794
15.2264
21.0161
29.2718
36.8443
41.7041
43.5378
43.2607
41.7453
38.9275
33.9735
26.289
16.6596
7.57207
2.06795
2.04724
6.99227
14.0742
19.5612
20.7139
17.2054
11.0804
5.30134
2.12563
2.09069
4.12281
6.38119
7.40798
6.97281
6.04501
6.07019
7.95304
11.2343
14.1121
14.2512
10.2736
3.06799
-3.9491
-6.10418
0.155856
15.0993
34.9838
53.645
65.5494
68.5307
64.6917
58.8785
55.5356
55.9031
57.2684
54.9444
45.6905
30.5247
14.9241
5.87298
7.25609
16.4593
25.0117
23.6521
9.19838
-10.8822
-20.1542
-1.41
52.6224
132.241
212.484
263.662
265.66
218.043
140.247
61.7399
7.69962
-11.9685
-4.45138
12.9919
24.1724
22.063
10.0661
-2.73958
-8.42981
-4.66813
5.41483
16.517
24.8672
29.7166
32.3784
34.0702
34.55
32.4344
26.7049
18.0089
8.72274
1.88675
-0.35566
2.04517
7.10202
12.1105
15.2931
16.7779
18.4073
22.3864
29.5261
38.2639
45.1423
46.6864
41.552
31.7196
21.688
16.2546
17.8965
25.4218
34.654
40.6634
40.2731
33.4933
23.3214
14.1388
9.70252
11.7455
19.5038
30.2688
40.4848
46.9857
48.0217
43.6839
35.7707
26.8714
19.3121
14.3881
12.2406
12.2715
13.8422
16.6938
20.8043
-6e-006
-8.1e-005
-0.000244
-0.000446
-0.000566
-0.000492
-0.000247
-5.6e-005
-0.000247
-0.000979
-0.001983
-0.002612
-0.00227
-0.000994
0.0003
0.000253
-0.001879
-0.005302
-0.007696
-0.00657
-0.001361
0.004998
0.006306
-0.004644
-0.032835
-0.053549
0.173764
0.459513
0.489135
-0.050991
-1.10814
-2.06015
-1.98716
-0.430365
1.81835
2.79281
0.752566
-4.04642
-8.66375
-9.00198
-3.02887
6.42053
12.1784
7.17197
-9.35727
-28.3678
-33.6602
-10.5162
44.3839
118.122
185.689
221.695
213.289
166.822
104.328
51.8666
26.6348
29.8878
48.9853
66.3475
69.4839
56.5305
35.1729
16.6764
9.28116
14.6149
28.1669
42.6535
52.0263
53.9289
50.0182
44.4227
41.4487
43.5386
50.3581
59.1604
66.5365
69.6193
67.7062
62.5041
57.3025
55.3143
58.1782
65.1523
73.4752
79.7594
81.7316
79.278
74.2787
69.4208
66.8793
67.3656
70.2676
74.3813
78.6828
82.5801
85.6899
87.4486
87.129
84.1838
78.6669
71.2868
62.961
54.3134
45.4677
36.335
27.1715
18.8699
12.6019
9.18143
8.45831
9.26892
10.0509
9.60841
7.55847
4.4418
1.34588
-0.62806
-0.692177
1.33663
4.93074
8.8449
11.4497
11.4055
8.47214
3.92295
0.140087
-0.582537
2.62375
8.55596
14.5272
17.7409
16.8965
12.8398
7.92269
4.61875
4.05936
5.64827
7.75925
8.84529
8.42307
7.09551
5.71316
4.60818
3.41256
1.74759
-0.036524
-0.84106
0.467635
3.90174
8.04846
11.0377
12.0394
12.0839
13.1604
16.0687
19.0119
18.6982
13.9231
9.2569
15.3706
44.3385
101.537
179.12
255.868
305.14
307.254
259.521
178.078
90.2529
21.8429
-13.5616
-17.8969
-3.85018
13.7709
25.1835
27.777
23.7774
16.5907
8.73916
2.03483
-1.54514
0.152242
8.20215
21.1259
34.9201
44.8621
48.1424
45.2925
39.473
34.3088
31.8275
31.7519
32.4924
32.6522
31.9391
30.9561
30.449
30.7427
31.738
33.3615
35.6739
38.5352
41.3254
43.2198
43.9074
44.3217
46.3858
51.7998
60.3864
69.3446
74.4104
72.2833
63.1037
51.0255
42.3013
41.8975
50.4467
63.4486
73.41
73.7677
62.4119
42.6921
21.586
6.02934
-0.384576
1.39398
7.13915
12.2236
14.2046
13.6198
12.7675
13.704
16.7907
20.6507
23.4128
24.1331
23.3827
22.5355
22.4972
22.9746
22.612
20.0685
15.0934
8.8336
3.15656
-0.522197
-1.78382
-1.16381
0.511548
2.85703
5.99098
9.88049
13.8231
16.4905
16.6448
14.1465
10.4617
7.9778
8.54995
12.137
16.6646
19.3053
18.3993
14.6921
10.7825
9.25027
10.7037
13.1309
13.535
10.4565
5.48165
2.3449
4.06607
10.0715
15.9257
16.6671
11.774
8.15327
18.1836
52.7791
113.182
186.756
250.314
280.063
263.156
204.537
125.014
51.6186
5.31689
-7.23731
5.75007
27.7657
43.2528
44.535
33.3396
17.3051
4.58403
-0.416753
1.68276
6.81397
10.3549
9.56682
4.73305
-1.02432
-3.25315
1.63262
14.3994
32.0728
48.8059
58.4395
57.4624
46.9129
31.8698
18.7709
12.1049
12.3836
16.5634
20.3703
21.1556
19.027
16.0817
14.46
14.8634
16.3585
17.457
17.3705
16.507
15.9207
16.3549
17.7004
19.21
20.0416
19.6018
17.5539
13.5893
7.8246
1.29712
-3.6983
-4.31005
1.24959
12.1719
24.6972
33.4985
34.443
27.2177
15.9383
7.31371
7.12648
16.9119
32.8581
47.7081
54.7516
51.4049
40.6833
29.2914
23.5765
25.7128
32.561
37.9869
37.1428
29.7559
20.3509
15.0392
17.2727
25.3185
33.427
35.7773
30.4127
20.5063
11.9419
9.28176
13.0417
19.8916
25.3265
26.6918
24.2779
20.1585
16.2865
13.4045
11.4475
10.4977
11.1139
13.5139
16.7811
19.0354
18.9604
17.1912
16.3567
19.2474
26.4497
35.5216
42.5192
44.6415
41.9271
36.761
31.7215
28.2088
27.4
32.7015
50.894
89.4337
150.403
224.867
292.663
329.489
318.602
260.446
173.964
88.1734
28.5336
5.70078
12.8262
31.8606
44.7673
42.4784
27.2359
8.3538
-4.87865
-8.44236
-4.44966
1.65394
5.18964
4.69643
1.78075
-0.756356
-0.868988
1.67819
5.60011
9.17837
11.2555
11.7115
11.3239
11.0882
11.5679
12.5382
13.115
12.3134
9.77157
6.25127
3.36996
2.63849
4.38007
7.30223
9.25801
8.75222
6.29337
4.47737
6.39898
13.4699
24.0339
33.94
38.8686
37.1088
30.8213
24.8089
23.5003
28.0521
35.6292
41.1215
40.2873
32.3252
20.0796
8.08372
-0.112476
-3.54438
-3.46664
-1.61186
1.05871
4.40716
7.98694
10.2716
9.37363
4.92382
-0.481843
-1.75319
5.86253
23.216
45.6632
64.8635
73.2002
68.2265
54.1539
39.3579
31.4636
33.2314
41.784
51.4726
57.8581
60.3985
61.8685
65.3626
71.4079
77.3569
79.414
75.7786
68.4627
62.2712
61.5076
66.9313
75.0267
80.1336
78.0451
68.788
56.5304
46.7902
43.1956
45.536
50.5283
54.4021
55.1253
52.833
48.4654
42.4244
34.836
27.5455
25.9456
38.2299
71.0175
123.603
184.628
234.626
254.257
234.004
179.651
109.965
47.6531
8.66905
-3.94786
1.22347
11.092
16.1608
14.6764
11.3018
12.2361
20.5751
34.5581
49.2588
59.5678
62.5445
58.0137
47.9126
35.2912
23.5882
15.8205
13.7758
17.2375
23.8046
29.7599
31.771
28.4996
20.9919
11.743
3.4311
-2.15261
-4.32511
-2.91152
1.92498
9.23173
16.882
21.991
22.2605
17.8241
11.763
8.58157
11.4504
19.8771
29.6315
35.4617
34.6663
28.9874
23.4
22.5058
27.0366
33.2355
35.3504
29.6588
17.1004
2.57872
-8.46879
-13.7
-14.9934
-16.5092
-21.3249
-29.1902
-36.9275
-41.079
-40.5336
-37.2267
-34.5676
-34.7127
-37.1044
-39.0613
-37.8525
-32.5995
-24.7411
-16.9751
-11.6176
-9.65827
-10.8475
-14.5468
-20.2071
-27.3653
-35.2015
-42.3322
-47.2927
-49.1745
-48.104
-44.9994
-40.7635
-35.7152
-29.8409
-23.1997
-16.3693
-10.5842
-6.98046
-5.8496
-6.45119
-7.28806
-6.73972
-3.5928
2.8301
12.6566
25.1123
38.0494
47.8251
50.2538
42.7408
26.5252
7.08186
-8.11
-13.6087
-9.24061
-0.116038
7.25643
10.6056
15.328
32.5543
72.1656
134.813
208.283
270.995
301.537
289.13
238.996
169.745
104.296
59.6004
40.516
40.4536
47.2204
50.321
45.5409
35.0308
24.2425
17.7775
16.8823
19.2723
21.1463
19.826
15.5231
11.1645
10.6809
16.6962
28.744
43.369
55.9658
63.2748
65.1319
64.3386
64.5951
67.9724
73.5012
77.8257
77.3896
70.6841
59.1917
46.4563
35.9983
29.5275
26.3526
24.1974
20.9841
16.1133
10.6218
6.30014
4.47734
5.17636
7.19575
8.96083
9.51574
9.0377
8.40197
8.35941
8.66959
8.21626
5.95028
2.09361
-1.25389
-0.998113
4.83024
15.2368
25.9
31.1391
27.2785
15.5339
2.27079
-4.02354
2.57304
21.6001
46.0146
65.6014
72.2155
63.9576
46.0017
27.5944
17.1803
18.4076
28.907
42.3558
52.0932
54.3033
49.296
40.5348
32.4181
28.1603
28.9086
34.1414
42.5342
52.699
63.1831
72.2294
77.9997
79.5159
77.8287
76.3134
79.3542
89.4894
104.873
119.202
124.739
116.999
98.1511
76.3612
61.152
57.6315
63.3965
70.4759
70.8615
61.6243
-0
-4e-006
-1.3e-005
-3.1e-005
-5.9e-005
-8.6e-005
-9.8e-005
-9.4e-005
-8.8e-005
-0.000104
-0.000165
-0.000268
-0.000374
-0.000431
-0.000414
-0.000359
-0.000343
-0.000442
-0.000661
-0.0009
-0.000992
-0.000833
-0.000518
-0.000459
-0.001396
-0.002874
0.006836
0.01458
0.039896
0.058097
0.019395
-0.087424
-0.202522
-0.257626
-0.198263
-0.048748
0.078561
0.022789
-0.286722
-0.712562
-0.981645
-0.877847
-0.412529
0.086061
0.126194
-0.591039
-1.78487
-2.52878
-1.4198
2.89008
11.0074
22.2139
34.332
44.1059
48.3792
45.3666
35.8849
23.5289
13.4482
10.196
15.3913
26.451
37.3637
41.4128
34.4676
17.2367
-4.7513
-23.8386
-34.2305
-35.0141
-30.4677
-27.549
-31.8279
-44.1123
-60.2342
-73.7295
-79.8982
-78.6271
-74.2192
-72.2736
-75.7121
-82.8151
-88.5352
-88.0452
-80.268
-69.0056
-60.7249
-60.8339
-70.4497
-85.9395
-101.133
-110.537
-111.769
-106.13
-97.5227
-90.2765
-87.287
-88.9449
-92.9412
-95.1325
-91.6148
-80.9972
-65.9931
-52.8254
-48.3524
-56.2205
-74.1553
-94.8209
-109.734
-113.983
-108.913
-100.66
-95.8579
-96.9554
-100.707
-100.557
-91.219
-72.4585
-49.5821
-30.5888
-21.7936
-24.7578
-35.9651
-48.7995
-56.8028
-56.2645
-47.3191
-33.6203
-20.9662
-14.9099
-17.7329
-25.986
-30.0449
-16.5582
25.7968
99.3828
193.367
285.016
347.468
360.738
320.793
241.957
151.072
75.9851
34.0379
26.4394
40.4362
57.6364
63.7975
54.7742
36.2374
18.5029
9.76325
12.0603
21.2747
30.828
36.0593
36.3644
34.644
34.6228
38.2249
44.793
52.0777
58.1648
62.6409
66.3286
70.0012
73.2436
74.5171
72.2476
66.0783
57.3419
48.3388
40.9673
35.8604
32.467
29.9819
28.0921
27.0598
27.0064
27.2481
26.3313
22.8962
16.7447
9.34959
3.12896
0.017462
0.389662
2.81221
5.06507
5.55857
4.15932
2.06412
0.926014
1.62358
3.74956
5.86498
6.39849
4.76559
1.66795
-1.2539
-2.38265
-1.11348
1.9137
5.34377
7.87625
8.93298
8.46995
6.39226
2.08203
-5.23225
-15.5306
-27.0617
-36.4799
-40.3364
-37.4219
-30.0086
-22.9446
-20.9852
-25.797
-34.7846
-42.6335
-44.7667
-40.3738
-32.7409
-26.7558
-25.5143
-28.2768
-31.3925
-31.364
-27.6849
-23.4038
-22.7291
-27.5446
-35.3486
-40.3826
-37.117
-23.7361
-3.60941
16.5959
30.677
36.1679
35.0575
32.114
31.5868
34.9909
40.8877
46.4534
49.5451
50.0113
49.5441
50.0327
52.2217
55.1301
56.7931
55.5893
51.4467
45.8975
40.8118
36.9926
33.6413
29.4813
24.9958
24.254
34.5864
62.9959
111.123
171.788
229.535
265.92
267.227
230.985
167.471
95.4378
34.4262
-2.64646
-13.3278
-4.34936
13.0774
28.7923
37.2264
37.8914
33.652
28.1566
23.9099
21.564
20.4662
19.5771
18.1299
15.9025
12.9111
8.89073
3.1035
-5.31777
-16.7414
-30.3619
-43.8575
-54.2055
-59.0751
-58.0393
-52.9249
-47.4462
-45.3726
-48.8547
-57.4375
-68.3596
-77.7553
-82.2944
-80.6654
-73.9951
-65.2147
-57.7037
-53.7663
-54.0186
-57.4553
-62.3896
-67.6755
-73.251
-79.847
-87.9916
-97.3392
-106.461
-113.661
-118.069
-120.292
-121.956
-124.609
-128.69
-133.303
-137.162
-139.963
-143.008
-148.324
-156.964
-167.371
-175.407
-176.25
-167.285
-150.129
-130.369
-115.064
-109.341
-113.902
-124.777
-135.336
-139.522
-134.359
-120.935
-103.477
-87.0322
-75.1162
-68.4902
-65.112
-61.5863
-55.0508
-44.7607
-32.2672
-20.3824
-11.3911
-5.75974
-2.06527
1.73344
6.68793
11.972
15.4146
15.1884
11.3372
6.13357
2.7761
3.49634
8.1137
14.3045
19.0832
20.8093
19.992
18.7665
19.3882
22.7776
28.147
33.5381
36.9072
37.1177
34.4313
30.5137
27.9788
29.3177
35.2986
43.7287
49.6527
48.0644
38.2231
27.2655
29.7134
61.6975
131.643
232.444
340.41
423.228
453.451
421.163
338.7
234.702
141.1
79.717
55.3372
57.8634
70.8513
80.7755
82.3359
78.0618
73.919
74.3585
79.5098
85.5947
87.3512
81.0271
66.4963
47.4975
30.1598
20.3404
20.8206
29.8013
41.3872
48.2985
45.357
32.1058
13.2584
-3.43961
-10.8611
-5.90308
8.99358
26.9826
39.9288
42.2226
33.3039
17.8857
3.64931
-2.37173
2.76876
16.6487
32.8292
44.0729
45.6959
37.4818
23.345
8.9972
-0.80957
-3.94616
-1.12039
5.08591
11.6418
15.9998
16.6707
13.3964
7.21598
0.303323
-4.62504
-5.34031
-1.14903
6.83342
16.3547
25.4619
33.6895
42.0331
51.702
62.3766
71.6259
75.8445
72.5571
62.539
49.9078
40.0749
36.5591
38.7213
42.2233
41.9047
35.2302
23.8946
12.8015
6.86832
7.97757
13.9688
20.2689
22.864
20.5039
15.0923
10.0455
8.13062
10.0163
14.1775
18.1132
19.7251
18.2587
14.378
9.83041
6.69967
6.7122
10.6033
17.6358
25.4687
-2e-006
-2.6e-005
-9.6e-005
-0.000227
-0.000404
-0.000585
-0.00073
-0.000822
-0.000884
-0.001002
-0.001281
-0.001777
-0.002424
-0.003038
-0.003395
-0.003395
-0.003217
-0.003297
-0.004072
-0.005551
-0.007039
-0.007484
-0.006518
-0.005872
-0.010417
-0.020332
0.033122
0.153296
0.286088
0.295944
0.052992
-0.422209
-1.01045
-1.52469
-1.66525
-1.34919
-0.81366
-0.637291
-1.36438
-3.15975
-5.41326
-6.81117
-6.14839
-3.42163
-0.623473
-0.983142
-6.13423
-13.013
-12.3315
9.24415
62.5522
147.861
250.449
343.238
396.973
393.467
334.805
243.161
150.734
85.0093
57.0833
59.7176
74.6436
84.2541
80.7919
67.9441
55.4414
51.2258
56.6687
67.1494
76.3548
80.5396
79.7693
75.8941
69.8443
60.6222
47.1125
30.6372
15.91
9.05413
13.7372
28.1837
45.0866
55.1596
52.4478
37.6128
17.5363
1.21615
-5.31228
-2.24957
5.07672
10.5456
11.9246
12.849
20.1336
38.4775
66.055
93.8656
109.755
105.371
81.297
47.1128
16.5133
-0.103737
-0.993768
7.15943
14.2401
13.3684
5.31292
-2.32475
-0.656579
14.3813
39.1099
63.7919
78.0032
76.1623
60.3867
38.8787
21.5514
15.2209
20.9037
34.2007
48.1116
56.485
56.8339
51.2186
44.8934
43.9428
52.4485
70.5806
94.1189
116.142
129.919
132.053
124.278
112.572
103.784
101.674
104.783
107.474
104.03
92.8106
77.4957
64.6782
58.9184
59.4041
60.5469
56.8679
48.0791
40.7191
44.4302
64.9738
98.5611
132.319
150.963
146.478
123.625
97.553
84.7579
92.7594
115.355
136.2
139.286
118.942
83.2651
48.9132
31.4397
36.5924
57.9451
81.9367
96.2418
96.5851
88.5953
84.0466
94.6455
126.707
178.276
239.695
296.517
333.959
341.149
314.58
259.576
188.557
117.132
59.0808
22.7609
10.0974
17.8786
39.7436
68.09
95.2433
114.242
120.836
114.846
100.411
83.9199
70.5563
61.3099
53.1075
42.6362
30.0186
19.9841
19.176
31.2579
53.2004
76.1381
90.4886
91.5495
81.2388
66.1657
52.4106
41.801
32.279
21.1001
7.8662
-4.37023
-10.3431
-5.23817
13.5565
46.0412
89.2416
137.605
182.89
215.778
229.456
223.075
202.823
179.107
161.115
152.104
148.535
144.23
136.03
126.659
122.232
126.731
138.145
149.227
152.543
146.509
136.945
132.245
136.754
147.143
154.736
152.875
143.014
134.575
138.56
51.4324
50.0808
47.1023
48.6183
59.3177
79.4219
104.573
128.341
145.313
152.982
151.431
141.397
123.313
98.1316
69.3517
43.938
30.7589
36.7706
62.8711
102.326
142.903
171.546
179.423
164.731
132.526
92.7288
57.1797
36.396
36.9088
59.7405
99.5791
145.942
186.514
211.638
217.868
209.271
195.65
189.014
199.156
230.297
279.689
338.685
394.975
435.869
451.653
437.945
396.558
334.854
263.863
194.912
136.516
92.674
62.4792
41.8086
25.8943
11.6086
-1.26605
-10.5507
-13.7499
-9.97075
-0.841225
9.86304
17.8131
19.9922
16.0565
8.65104
2.05784
0.606281
6.77039
19.9992
36.863
52.2256
61.5281
62.2518
54.6107
41.5274
27.2188
15.8473
10.3726
11.4996
17.4378
24.8399
30.5397
33.5223
35.7634
40.9637
51.6497
66.5178
79.9653
85.3302
79.6213
67.1179
57.4873
59.9334
76.4354
99.1292
114.145
110.76
88.7638
59.325
38.0703
34.9694
47.9725
65.1458
73.6762
68.8619
57.0795
50.633
58.3076
78.7768
101.629
114.513
111.62
97.2093
82.2073
77.1976
85.7804
103.442
121.059
130.103
126.592
111.839
90.9426
70.3927
56.3679
53.2917
62.5707
81.897
105.61
126.297
137.79
137.975
129.89
119.88
113.965
114.592
119.732
124.77
125.891
123.456
122.901
133.031
161.57
210.804
275.45
343.696
400.829
434.429
438.322
413.918
369.577
317.705
271.052
239.416
227.111
231.511
243.849
252.255
246.679
223.616
188.19
151.854
126.594
118.435
124.319
134.109
136.269
124.562
101.389
75.9423
59.0867
57.8447
72.3631
96.6688
121.987
140.342
147.29
142.621
129.492
112.372
94.3064
75.7051
54.76
29.5126
0.507151
-27.9086
-48.7229
-55.9541
-48.6122
-32.3179
-16.7441
-10.2528
-14.8494
-24.8794
-30.4322
-23.6298
-3.90532
21.6426
42.8028
52.9116
53.6704
54.5654
66.9904
96.7159
139.357
181.708
208.467
210.285
188.524
153.901
119.93
95.3599
80.2365
67.8302
51.2672
29.5193
8.91034
-1.01281
5.57613
26.0826
51.0927
70.7423
81.841
90.3941
107.205
139.611
184.68
229.003
255.629
253.76
225.08
183.301
146.835
129.592
135.277
157.288
183.569
202.674
207.516
196.165
170.988
137.781
105.043
82.8505
80.0613
100.317
138.735
182.221
213.677
218.994
57.0839
67.966
71.4693
70.979
70.7708
73.0389
76.9013
79.4758
78.0083
71.7219
62.0378
51.4784
42.125
34.6365
28.6553
23.5435
18.9711
14.7462
10.4324
5.46858
-0.22179
-5.41132
-7.46892
-3.47824
7.56248
23.122
37.4415
44.0233
39.3338
25.3719
9.00943
-1.8847
-3.27183
2.49841
8.28283
7.55208
0.155942
-5.73628
2.34856
33.4313
85.9471
145.986
192.504
207.395
184.409
132.334
70.7339
20.8364
-3.44655
-0.313449
21.1448
46.5997
63.2757
64.7677
52.222
32.4089
13.7344
2.46672
0.552231
5.87445
14.2772
22.1016
28.1294
33.2422
38.617
43.8701
46.8367
45.3301
39.4442
32.466
29.3289
33.3625
43.7018
55.4479
62.7837
62.8711
57.661
52.1905
50.4099
52.1002
53.178
49.0787
39.2024
28.2381
23.3381
29.1049
43.8452
60.2294
70.0655
70.1514
64.5937
62.3797
71.4857
93.7248
123.625
152.152
172.308
182.754
187.351
191.259
196.686
201.387
200.621
190.948
172.934
151.263
131.991
119.442
114.633
115.828
120.08
124.627
128.017
129.884
130.651
131.182
132.61
135.91
141.227
147.259
151.384
150.683
143.248
129.165
110.724
91.6106
75.4314
64.3244
57.864
53.2039
46.6918
36.1325
23.5194
15.736
22.4395
51.442
103.17
167.62
226.34
259.483
254.178
210.519
141.909
69.1622
11.7029
-19.6408
-25.1343
-13.5357
3.43828
16.5382
21.7227
19.9259
14.809
10.1323
8.03065
8.73331
11.1119
13.9359
16.9336
21.3132
29.0327
41.4606
58.2561
76.7686
92.6475
101.671
101.922
95.1363
86.2999
81.3651
84.4921
95.9733
111.639
124.454
127.769
118.615
99.4378
77.1597
60.4927
55.7933
64.3301
81.5849
99.4019
109.686
108.087
95.7416
78.3113
62.8587
54.3461
53.8862
59.2742
67.2736
76.1499
86.3414
99.0856
114.136
128.369
136.942
136.314
127.079
114.057
103.322
98.0545
96.1374
91.7751
80.2357
62.3804
45.5355
39.4657
50.0479
74.5941
102.441
120.706
121.682
106.911
85.7317
69.3049
64.2048
69.2182
76.754
78.374
70.2387
55.0795
39.9656
31.4773
31.2992
34.8767
33.9835
22.3712
0.710581
-21.6452
-30.0306
-11.7527
36.108
103.017
167.603
206.259
203.706
159.642
88.725
13.5279
-45.4665
-77.6611
-84.4836
-75.7859
-63.4228
-56.0676
-56.985
-64.8196
-75.6192
156.104
145.647
125.117
103.343
86.8161
77.019
71.1335
65.2014
57.5587
50.2126
47.2675
51.5541
62.0732
73.9552
81.2983
80.8297
73.8567
65.1493
59.5771
58.844
60.7769
61.1501
57.1238
49.4458
41.7775
37.7682
38.2436
40.4202
39.8578
33.9704
24.3849
16.2823
15.0592
22.4617
34.7705
44.4962
44.7186
33.3347
14.9533
-1.28004
-6.62209
2.7493
23.5588
47.3801
65.0191
70.92
65.3081
53.4486
42.4103
37.3364
38.9803
43.213
43.4745
34.4964
16.0817
-5.24782
-18.1333
-11.1552
21.184
74.3787
134.256
181.981
201.544
186.255
141.444
81.9273
26.0054
-11.3392
-22.9959
-10.809
16.7922
48.5648
74.4733
88.4838
89.6742
81.1458
67.9523
54.7986
44.4402
37.4219
33.0356
30.4357
29.5074
30.7748
34.3892
39.2077
42.9748
43.5727
40.5563
36.0158
34.1219
38.8325
51.439
69.2147
86.2718
96.2255
95.6429
86.1639
73.8879
66.1071
67.4089
77.001
89.4222
98.0295
99.0304
93.4637
85.8287
80.6173
79.1778
79.3546
77.8477
73.3209
67.4914
63.7326
64.1561
67.1828
67.9896
61.5666
46.5785
26.905
10.2081
3.85857
10.7173
27.5752
47.0827
61.931
68.5966
68.8334
67.6427
69.0664
73.1852
76.0002
72.1892
59.1656
39.0088
16.957
-2.3894
-18.2851
-34.118
-53.9785
-77.9307
-100.136
-110.931
-102.733
-75.9845
-41.1625
-14.9554
-12.295
-37.8206
-81.2598
-120.173
-129.338
-93.0015
-14.1199
84.5581
168.922
208.549
190.533
125.271
41.0521
-30.3024
-68.9312
-74.9159
-64.2066
-56.14
-60.9141
-74.7056
-84.9663
-81.2515
-63.5924
-42.4952
-31.28
-36.4951
-53.3793
-69.3192
-72.4232
-59.5496
-37.7404
-19.0263
-12.926
-20.7533
-35.5864
-47.5558
-49.6614
-40.9066
-25.1462
-7.84963
6.71466
16.6484
22.2504
25.2519
28.357
35.578
51.1319
76.6551
108.802
139.145
158.122
161.054
152.394
143.861
147.432
166.924
194.047
212.816
209.955
184.282
148.615
122.16
118.461
137.063
163.903
180.678
176.931
156.326
133.495
123.853
133.187
153.766
170.047
169.496
151.123
126.146
111.099
117.87
146.807
186.892
222.693
242.945
245.683
237.981
230.682
231.588
241.788
256.336
268.205
272.227
266.786
253.444
234.961
213.533
190.116
165.099
139.674
117.1
103.358
105.44
128.466
171.948
227.399
278.888
308.042
302.008
259.658
192.696
120.683
61.974
26.5041
13.5832
15.548
24.7353
37.7881
55
76.3264
98.1201
113.904
118.698
113.578
106.123
106.101
118.818
140.828
160.95
167.225
154.577
128.431
101.961
88.8356
95.4215
117.831
145.004
165.422
172.815
168.109
157.149
146.241
138.769
134.709
132.668
131.896
132.831
135.989
140.358
143.191
141.921
136.721
131.053
129.443
133.73
141.23
146.078
143.36
133.591
123.536
122.318
134.838
157.22
178.017
184.619
171.066
142.366
111.915
93.5898
93.5483
107.252
123.397
131.437
128.251
119.323
113.909
118.814
134.033
153.086
167.471
171.392
164.277
149.983
133.909
120.04
110.179
104.965
104.538
108.456
114.538
118.386
114.662
100.139
76.5206
51.2968
35.5742
39.6409
67.8669
115.868
170.978
216.198
235.946
222.059
177.27
114.271
51.4492
6.53711
-10.0408
1.21808
29.6676
59.2626
75.0275
68.6883
41.3178
2.25053
-35.0043
-58.0939
-60.3899
-43.0161
-13.356
18.9279
46.4964
67.2092
83.6945
99.7996
115.962
127.899
128.825
114.562
88.0759
59.9977
43.8785
48.8756
74.2367
109.123
138.39
150.86
144.843
128.27
113.26
108.859
116.511
130.671
143.166
148.199
144.888
136.459
127.091
119.398
113.93
110.37
108.728
109.58
113.077
117.377
118.562
112.902
99.1221
79.5546
59.1941
42.9821
33.1186
28.193
24.8674
20.3945
14.2918
8.29197
4.75076
4.65893
7.36944
11.3993
15.4909
19.2562
22.7248
25.6163
27.1521
26.7605
24.988
23.4091
23.5837
25.8801
29.0464
31.4876
32.5686
33.3849
35.8487
40.1819
43.1981
39.2878
24.3795
0.736482
-20.9858
-24.9565
2.02715
61.6744
139.978
210.829
246.809
232.148
170.629
84.1006
2.17264
-51.5594
-69.3301
-60.1742
-42.3168
-32.1957
-36.5481
-51.6212
-68.3812
-79.7579
-84.9948
-89.0325
-98.0134
-114.773
-136.889
-158.083
-171.689
-173.965
-165.004
-147.812
-126.442
-104.45
-84.025
-65.6605
-48.542
-31.1433
-11.8349
9.88791
32.4916
52.3655
64.9803
67.2866
59.206
44.0198
27.2421
14.3634
8.48403
9.14251
12.7578
14.716
12.0169
5.27658
-0.887357
0.217048
14.2476
42.7221
81.5482
122.614
157.005
178.516
185.534
180.649
168.557
153.783
139.594
127.679
118.54
111.627
105.308
97.3794
86.4462
73.5264
62.6643
59.4256
67.7096
86.6788
109.773
127.03
129.651
114.296
84.7919
50.1295
20.2022
1.73954
-3.79775
0.456171
9.64478
19.8882
29.5901
38.7827
47.5379
54.9445
59.745
62.4423
67.2027
81.6171
113.272
164.567
228.721
290.064
329.503
332.777
297.356
233.911
161.36
98.2023
55.0019
31.9195
21.5554
15.1637
7.68639
-0.825724
-7.31995
-9.17095
-6.32686
-1.09535
3.79517
7.02697
9.30309
12.5708
18.5243
27.5021
38.2486
48.4948
55.9292
59.4282
59.6733
59.1431
60.942
67.0094
76.6075
86.1949
90.7452
86.0724
71.1375
48.8712
25.2632
6.96765
-1.14986
2.12455
13.9676
28.6551
39.8521
43.1776
38.0446
27.9699
19.0087
16.9022
24.1037
38.4747
54.4459
65.9663
69.6618
66.4845
60.7109
56.8381
56.935
59.4635
60.4986
56.6274
47.4421
36.3185
29.0379
31.0384
44.6109
67.2752
92.1026
110.106
114.308
103.516
83.7936
66.2873
61.8132
74.7171
99.8251
124.909
137.383
131.233
110.746
87.864
75.0635
78.21
93.5212
110.056
116
105.123
79.8004
49.6012
26.7536
20.6709
34.1142
62.3649
95.3754
121.757
133.042
126.572
105.923
78.6645
52.543
32.2997
18.7397
10.1726
4.67562
1.64279
1.81283
5.67054
12.3212
19.3557
24.1748
25.515
23.9486
21.2797
19.1448
18.0528
17.5266
16.9114
16.103
15.6521
16.369
18.6119
21.8071
24.6386
25.8024
24.7441
22.3948
21.3945
25.4216
37.1708
56.4884
79.3791
98.9443
108.282
104.253
89.8609
73.3743
64.409
68.7481
85.0516
105.373
119.349
119.817
106.873
87.9287
73.8257
73.2783
88.3473
113.403
137.726
150.599
146.4
127.278
102.152
82.3526
75.8535
83.3049
97.4912
107.257
103.881
86.1409
61.1338
40.3247
33.1933
42.0557
61.1288
80.4919
91.9484
93.1386
87.5034
80.9983
77.8536
78.0925
78.3511
74.8288
66.0073
53.6547
41.8779
34.8788
34.8367
40.3219
46.6543
47.8864
40.3566
26.2778
15.1478
21.2214
56.801
124.111
210.623
291.462
338.915
334.855
279.688
192.598
102.854
36.949
7.95521
12.4106
35.1701
58.4871
70.1159
66.8271
52.7678
35.0945
19.7788
9.80068
5.16388
4.08246
4.3692
4.31934
3.29314
2.01387
2.56092
7.53719
18.2932
33.7108
0
-1e-006
-7e-006
-2.2e-005
-4.5e-005
-6.8e-005
-7.5e-005
-5.7e-005
-2.7e-005
-2.2e-005
-7.4e-005
-0.000187
-0.000318
-0.000383
-0.000318
-0.000148
-1.9e-005
-0.000134
-0.000585
-0.001222
-0.001654
-0.001478
-0.000643
0.000238
-5.7e-005
-0.002845
-0.00646
0.01126
0.032795
0.051386
0.032506
-0.063112
-0.200776
-0.280325
-0.200149
0.03139
0.273577
0.308396
-0.050443
-0.712866
-1.27239
-1.17317
-0.170379
1.23151
1.8916
0.721066
-2.32612
-5.58867
-6.02641
-0.953802
9.79705
22.7742
31.9928
32.2777
22.8922
8.90197
-1.27432
-1.19411
8.81934
21.2497
26.3112
19.7942
8.23814
7.06045
31.6516
86.2967
158.223
221.654
250.249
230.956
171.037
94.1409
27.8983
-9.23522
-15.1822
-1.82935
14.1913
21.2163
17.037
7.38796
0.644255
2.36568
12.6692
26.8831
38.3229
41.5246
34.7572
21.1598
7.94833
3.47886
13.0876
35.5745
62.4612
81.4687
83.0511
66.4043
40.9267
21.7468
21.272
41.5625
72.6085
97.994
104.843
92.0652
71.4638
60.6809
72.144
104.961
144.888
172.714
175.851
155.96
127.591
108.845
110.264
128.782
150.351
159.344
148.165
120.933
89.4944
65.1439
52.0082
46.3839
40.9582
30.7304
16.2584
2.45721
-5.78968
-7.22297
-4.04875
0.673412
5.71308
12.5498
23.3535
38.1866
53.8063
65.2835
69.1923
66.1146
60.9463
60.3579
69.1755
87.9317
112.495
135.732
150.299
151.86
141.148
124.184
110.183
107.309
117.978
136.185
149.428
145.58
121.2
86.758
63.7926
73.8718
125.545
206.424
286.42
331.65
321.763
260.803
175.035
98.9669
57.7448
56.0715
79.2194
103.991
112.525
100.761
77.2312
55.1815
43.8216
44.4165
52.0462
60.3219
65.86
69.4261
73.8223
81.2388
91.4091
101.874
109.405
111.786
108.613
101.633
94.6346
92.1613
97.663
111.846
131.726
151.218
164.062
167.25
162.763
156.435
154.384
159.11
167.91
174.423
172.409
159.775
139.777
119.473
105.927
102.168
105.982
111.232
111.283
102.546
86.1998
67.4979
53.1014
47.7983
52.1792
62.6217
73.3638
78.9498
76.6351
67.8437
57.4762
51.6737
54.8472
67.7157
86.5726
104.201
112.799
107.422
88.2408
60.5397
32.1744
10.2049
-2.07036
-5.88251
-5.42432
-5.3766
-8.95144
-17.5568
-31.5137
-50.5231
-73.4562
-98.0306
-120.883
-138.758
-150.348
-157.131
-161.796
-165.12
-163.156
-147.433
-109.362
-46.4282
33.0999
110.875
165.307
180.954
156.105
103.884
46.5177
5.52137
-7.39858
5.99198
33.4525
59.7277
74.1203
74.5243
66.5782
58.5854
56.1793
59.7135
65.2727
68.0501
65.4243
58.1173
48.8003
39.5236
30.6258
21.6691
13.4375
8.92756
11.9862
24.6416
44.7321
65.9109
81.1631
87.1695
86.297
84.6206
87.6039
95.9621
105.076
108.921
105.261
98.4148
97.1604
108.797
133.535
162.94
184.248
188.058
173.749
149.821
128.413
118.127
120.147
129.043
137.416
140.809
139.372
135.932
132.696
129.809
126.353
122.588
120.841
123.767
131.658
140.877
145.348
140.065
124.215
102.059
80.9887
68.3246
68.6721
82.7391
107.541
137.399
165.258
184.079
189.248
180.816
163.833
146.302
135.317
133.755
139.151
145.203
145.496
136.697
119.575
98.1158
77.7363
63.5178
59.4271
67.9051
89.2062
120.345
154.594
182.798
195.861
188.098
159.66
116.921
71.0028
34.213
15.4554
17.0813
33.6958
53.9933
65.5411
60.6646
40.198
13.1079
-8.00509
-13.6495
-2.32762
19.0926
39.684
50.4266
48.3651
36.996
23.3591
14.0436
12.2961
17.5924
26.9449
37.0959
45.9122
52.2161
55.6021
56.1734
54.2106
50.2746
45.116
39.5842
34.4729
30.562
28.4691
28.2973
29.3192
29.8955
28.201
23.4726
17.2498
13.0567
14.4539
22.6991
35.3433
47.2467
53.4178
52.2389
46.5614
41.6249
41.5773
46.4062
51.482
50.8787
41.7157
26.6039
12.7172
7.79374
15.4409
32.6181
51.2702
62.6323
61.967
50.8575
35.7707
24.3196
21.25
26.6337
36.9674
47.9336
56.9127
63.7603
69.3941
74.0609
76.656
75.633
70.9414
64.9717
61.3208
61.9374
64.8841
64.8887
56.696
40.1202
22.905
18.733
40.6191
92.9294
166.466
240.267
289.919
298.298
263.015
197.212
123.189
62.5462
27.6708
18.6821
26.1837
37.4922
43.1501
40.2235
31.6492
23.3501
20.5276
25.1556
35.423
46.8606
54.3407
54.1167
45.5437
31.442
17.2748
8.88094
9.59153
18.4839
30.6164
39.6493
41.708
37.553
32.0836
31.2552
38.182
51.2699
65.3771
75.3405
79.2404
79.1262
78.9687
81.5219
86.4635
91.2612
93.4207
92.5291
90.2039
88.1563
86.2864
82.7545
76.0421
67.3913
61.3572
63.3877
75.6165
94.39
111.442
118.292
111.25
93.697
74.138
61.1447
58.706
64.9613
74.4116
81.7942
84.5622
82.8468
77.5798
68.823
56.057
39.9446
24.0626
14.3108
15.971
30.1603
52.295
73.839
86.4788
86.1426
75.0783
60.3505
50.1954
50.2465
61.3044
79.3817
97.2755
107.051
103.375
86.3648
63.0438
46.0453
48.9718
79.8106
135.326
200.147
252.053
271.423
250.272
195.676
126.059
62.2663
18.5736
-1.75908
-4.64777
0.708509
7.63665
14.5013
23.1584
35.5147
50.9863
66.2163
76.8624
79.8509
74.551
62.4801
46.337
29.173
14.0813
3.86931
0.481101
4.0325
12.4873
22.3006
29.9812
33.9142
35.1662
36.7449
41.6133
50.9018
63.3222
76.0501
86.4526
93.3929
97.3101
99.3926
100.661
101.323
101.273
100.636
99.7266
98.418
95.5857
89.5058
79.1923
65.8299
52.9915
44.8647
43.6079
47.3352
50.836
48.7656
39.0824
24.5355
11.4803
6.04522
10.374
21.6367
34.0213
42.3115
44.5869
42.451
39.1975
37.4196
37.8217
39.7508
42.5384
46.2576
51.4255
58.054
65.1529
71.3322
75.9283
79.4862
82.8709
85.6841
85.7214
80.1684
67.9745
51.9173
37.9684
31.5042
32.9027
36.0022
31.3648
13.1952
-14.2851
-36.1114
-33.3467
5.93806
77.7289
161.22
227.386
252.78
230.758
173.598
104.937
47.214
11.5645
-4.53751
-11.7508
-19.8912
-31.9081
-43.8739
-49.7962
-47.3237
-40.0724
-35.3241
-39.3008
-53.3715
-73.6124
-93.5079
-107.619
-113.664
-112.091
-104.454
-92.1976
-76.6839
-60.2618
-46.8151
-40.7789
-44.6297
-56.6016
-70.4944
-78.2117
-73.9851
-57.4941
-34.157
-12.243
1.63084
5.97061
4.76847
4.61503
10.6424
23.709
40.3102
55.2027
64.7229
68.6998
70.1901
73.1081
79.7024
89.2213
98.4742
103.758
102.535
94.567
82.2277
69.7847
62.2381
63.481
74.5351
92.3692
110.516
121.701
121.689
112.148
100.329
95.1559
101.825
118.265
136.081
145.582
141.815
127.89
112.962
106.193
111.04
123.334
134.332
136.304
126.969
109.843
90.9975
75.0454
63.0608
53.5425
44.6515
35.6641
26.7417
18.0841
9.97405
4.1419
5.24794
19.9832
53.1363
102.762
157.949
201.48
217.117
197.46
148.155
85.5261
29.1767
-6.23319
-16.1518
-5.93879
13.5214
31.5137
41.637
42.9739
38.7662
33.8159
31.9223
34.1653
38.7768
42.6364
43.4141
41.2455
38.5423
38.1821
40.9937
44.591
44.8247
39.1396
29.3999
21.5868
22.2005
33.5016
50.969
64.8918
66.1208
51.8474
27.9762
6.18481
-2.76059
5.1078
24.9663
46.581
60.5376
63.4888
58.9141
53.4986
52.0417
54.1124
54.8633
49.0435
35.5547
18.8524
6.42086
4.14293
12.5958
26.5608
38.3172
42.229
37.821
29.3931
22.5591
20.4907
22.1594
23.7998
22.1319
16.9031
11.1321
8.60258
10.6872
15.049
17.1525
13.6248
5.16693
-3.20653
-4.57205
5.97072
28.2812
56.8616
83.0228
98.2031
97.1011
79.7058
51.2556
20.4004
-3.93837
-16.0911
-16.2351
-10.3701
-7.18697
-12.6437
-25.4994
-36.5265
-32.6981
-4.45448
47.8613
112.38
170.311
204.107
204.715
174.184
123.275
65.7798
13.4897
-26.1125
-49.5934
-56.3166
-47.666
-27.2028
-0.466917
25.9362
46.4254
57.9371
59.9399
53.6704
41.2377
25.2018
9.10182
-2.41455
-4.97483
2.83748
17.5336
31.289
35.8712
27.586
10.4288
-5.60078
-10.589
-1.48199
15.0205
25.8603
19.6999
-4.91745
-37.2578
-59.5786
-57.4045
-28.2396
16.3157
57.0236
77.8872
75.1638
58.8176
45.5661
48.5121
69.6272
99.402
123.375
130.877
120.492
99.1502
76.6689
59.9578
50.2667
44.8554
40.48
35.8264
31.7961
29.8604
30.2975
31.9712
33.2411
33.3376
32.5271
31.1879
29.024
25.4438
20.5959
16.3008
15.6756
21.1667
32.2247
44.7442
52.7272
51.6726
41.6326
27.7839
17.8759
18.2044
30.0424
49.1449
68.197
80.5609
83.1073
76.6969
64.445
49.9997
36.7872
28.6012
30.4881
47.8139
83.4377
134.114
188.744
231.159
246.842
230.048
187.448
135.41
92.0756
68.5338
64.0347
68.162
68.3521
57.7848
38.8831
20.6785
12.3917
17.4999
31.8898
46.9624
55.1341
54.1296
47.5846
42.0001
42.1435
47.9962
55.1123
57.9807
53.9874
45.5933
39.2522
41.3283
53.5982
71.5199
86.0714
89.02
78.4293
61.0791
49.3197
54.4828
80.0189
118.636
155.534
175.817
172.057
148.145
116.801
92.7517
85.5632
95.6837
115.553
134.433
143.672
140.256
127.198
111.148
98.9893
95.2032
100.635
112.827
127.016
137.691
140.504
133.503
117.565
96.3326
74.9165
58.071
48.7157
47.0277
50.4853
55.0572
56.9451
54.0291
46.7258
37.6179
30.0998
26.6999
0
0
-1e-006
-1.9e-005
-4.8e-005
-8.4e-005
-0.000105
-9e-005
-5.4e-005
-4.4e-005
-0.00011
-0.000257
-0.000423
-0.000501
-0.000422
-0.000248
-0.000152
-0.000314
-0.000758
-0.001278
-0.001521
-0.001219
-0.00046
0.000191
-0.000178
-0.00254
-0.007603
-0.009404
0.046651
0.077874
0.076979
-0.025884
-0.225112
-0.36255
-0.287023
0.004509
0.314624
0.32513
-0.166098
-0.977784
-1.51961
-1.25705
-0.168018
1.03411
1.26808
-0.142018
-2.806
-5.0441
-4.66272
-0.132893
8.55024
19.6621
30.4101
37.9965
40.6452
38.2445
32.4605
26.0677
21.9486
21.8976
25.7851
31.6179
36.6183
38.7983
38.2419
37.079
38.1325
43.1966
51.8533
61.6361
69.4175
73.2524
73.0559
70.4219
67.5621
66.3856
68.1088
73.2668
81.9099
93.1991
105.004
113.797
115.912
109.477
95.8508
79.7861
67.6892
64.4848
70.5704
81.2861
89.2019
87.9955
76.1565
58.2513
42.6137
36.6654
42.5406
56.1866
70.0306
77.72
77.7244
73.3992
69.6235
68.4691
67.2531
60.9832
47.5392
31.1937
21.3209
26.8077
49.305
80.5853
106.709
116.621
110.005
98.4482
98.6314
121.612
165.009
212.853
243.424
240.761
202.513
140.726
75.3354
24.6905
-1.21484
-2.67876
12.6833
34.8643
55.3279
68.6465
72.5841
67.5484
56.3015
43.6356
34.9972
34.3401
41.6009
52.3761
60.1337
59.8422
50.8894
37.5902
26.8251
24.3234
31.7684
46.6864
64.3311
80.1172
91.1485
96.103
94.7556
87.7371
76.9572
65.9757
59.5097
61.5606
72.7494
89.4419
105.023
112.978
110.136
98.1391
82.3467
69.1117
62.8576
64.4653
71.7569
80.9448
88.2479
91.2068
89.2556
83.396
75.4865
67.0387
58.8581
51.0204
43.3415
36.1266
30.5327
27.9052
28.9797
33.1285
38.5661
43.3155
46.1199
46.8864
46.206
44.6329
42.3877
39.7589
37.537
36.8947
38.5941
42.1486
45.7034
47.1409
45.4347
41.0814
35.7721
30.8919
26.8471
23.3974
20.5941
18.9693
18.5934
17.795
13.1638
2.20047
-12.7525
-22.4867
-13.6588
23.9857
89.4605
167.315
232.618
262.357
247.002
195.429
130.005
74.8154
44.2064
37.731
43.7646
48.3608
43.3283
29.1727
12.3227
0.138262
-3.11614
2.43366
13.7099
26.7082
37.9204
44.9437
46.9101
44.5804
40.1108
35.9538
33.3981
31.766
28.9421
23.1586
14.7687
6.53078
2.01649
3.21204
9.25283
16.8422
22.2886
23.3609
20.2096
14.9709
10.518
9.41924
13.5191
23.8107
40.0673
60.398
81.2101
98.0245
107.319
108.053
102.024
92.7013
83.4461
76.1157
70.6048
66.0605
62.359
60.4947
62.0635
67.8945
76.7814
85.4429
89.8129
87.1126
77.6828
65.5291
56.6539
56.1789
65.1609
79.4582
91.6672
95.2707
88.7892
77.1206
68.9558
71.4299
85.6106
105.68
122.199
127.393
119.132
101.053
79.1863
57.9946
39.2511
24.0378
15.2694
17.6717
34.2041
61.4559
88.387
100.939
91.0562
64.0814
38.6231
37.2528
72.91
139.353
212.467
262.034
267.326
227.74
162.242
98.3014
57.4544
46.2769
56.7411
73.8601
85.4859
87.6569
83.6222
78.7627
76.0471
74.9664
73.7898
72.2227
71.6384
73.059
74.5957
71.7879
60.9374
43.4093
27.0221
23.0487
39.5093
75.3489
119.503
156.096
172.653
166.583
145.879
123.773
110.893
109.915
115.918
121.414
122.006
118.702
115.933
117.088
121.765
126.273
127.38
125.411
124.192
128.117
138.09
150.078
157.361
154.869
141.959
122.358
101.392
82.5713
66.4514
52.2888
40.4906
33.4886
34.2491
43.3082
57.2129
69.7626
75.5361
73.3253
67.0442
63.2456
67.1983
79.7571
96.957
112.541
121.185
120.882
113.314
102.648
93.0135
86.8334
83.907
81.6378
76.1548
64.4021
45.9226
23.6919
3.32271
-9.31786
-10.6127
-1.103
14.6921
30.0709
39.1189
39.1184
31.7591
22.5467
19.2472
29.1765
56.2878
99.1284
149.373
193.135
214.987
203.769
158.54
91.3455
23.8521
-21.0164
-28.9408
-1.16442
46.7193
93.0842
121.284
127.017
118.23
108.216
106.73
115.147
128.377
140.269
148.822
157.141
169.92
188.566
209.014
223.507
225.622
214.559
195.616
177.175
166.342
166.027
174.762
189.123
205.903
222.881
238.123
248.701
250.797
240.865
218.333
186.972
154.401
129.198
116.564
115.463
118.471
115.201
98.0821
67.3824
31.7422
3.89557
-6.21363
3.31453
25.5829
49.315
64.8772
68.4905
62.5607
52.4173
42.9664
36.8713
34.9146
36.9354
42.2337
48.5541
52.0111
48.8301
38.7962
27.3068
22.3254
30.9765
54.1645
85.2521
113.586
130.4
133.324
126.792
118.472
114.428
117.472
127.756
143.013
158.163
163.802
148.096
103.788
37.4394
-25.4023
-46.1611
0
-3e-006
-3.6e-005
-0.000114
-0.000236
-0.000386
-0.0005
-0.000508
-0.00042
-0.000374
-0.000604
-0.001229
-0.002074
-0.002684
-0.002632
-0.001897
-0.001114
-0.001288
-0.003046
-0.005863
-0.007989
-0.007484
-0.003933
0.000195
-0.000415
-0.012104
-0.028494
0.054894
0.175543
0.261254
0.240286
-0.105195
-0.790975
-1.45631
-1.52268
-0.5663
0.874347
1.45216
-0.111284
-3.67238
-7.32095
-8.02727
-4.07365
2.76451
7.15289
3.44197
-9.22888
-23.7454
-26.8694
-5.97098
42.3512
107.877
169.942
207.681
211.254
188.001
158.605
145.768
161.2
198.579
236.638
250.859
227.313
170.717
102.673
50.258
31.9278
48.2258
82.3235
110.194
114.103
92.0934
57.5522
30.5195
26.4759
49.5992
92.4709
141.87
184.429
210.234
213.58
193.224
154.284
109.495
75.8269
66.8493
84.3284
115.202
137.896
136.086
109.942
78.2498
66.9384
93.1696
154.341
229.012
288.969
314.608
303.469
268.733
230.517
206.445
205.303
226.076
259.242
290.82
306.536
297.646
265.543
222.31
184.738
164.507
160.657
159.952
146.778
115.638
77.6799
55.3576
67.6851
115.869
179.436
226.171
230.115
186.534
114.438
45.9044
7.95769
9.01242
36.5031
66.6656
79.4481
69.3482
46.4186
27.8468
25.6053
38.7672
55.6044
62.3089
52.5718
32.2215
15.155
14.5248
33.7693
64.6709
92.689
105.561
99.911
82.6619
66.0033
59.4938
64.8693
76.0892
83.5498
80.1022
64.7095
43.018
23.7757
14.2768
17.02
29.2837
44.967
57.6147
62.9426
59.9814
50.9257
40.1827
32.9543
33.6047
43.6611
60.453
77.8613
88.4365
87.271
75.1897
59.1153
48.8924
51.9955
69.3628
94.8575
118.867
133.581
136.592
130.835
121.986
115.577
115.266
122.808
138.147
158.895
180.01
195.043
199.563
194.889
188.604
190.651
205.822
228.634
244.699
239.003
205.982
154.597
104.189
73.3745
69.2892
84.578
104.047
115.852
119.101
122.38
134.609
155.682
174.41
175.587
151.184
107.203
61.2362
32.0616
28.4382
44.5287
64.7943
74.7907
69.7207
55.4547
42.3888
37.4251
40.0257
44.3084
44.9737
41.8737
39.7043
43.4348
53.8665
66.6782
75.8431
78.7637
78.3879
80.6819
89.6758
103.659
115.722
118.526
109.768
94.2777
80.8913
77.0356
83.808
95.6201
104.34
104.542
96.3758
305.071
308.572
299.494
277.558
247.229
216.538
192.57
176.887
164.6
148.344
124.436
96.3982
73.2767
63.6104
69.2336
83.4365
94.4949
92.6847
75.8655
50.6979
28.6945
19.4926
25.5819
41.3258
56.7419
63.4886
60.0506
52.713
52.1699
67.5701
101.157
146.777
192.828
227.93
245.887
247.425
238.199
224.758
211.259
198.574
185.808
172.34
158.344
144.412
130.11
113.846
93.9443
70.5425
46.4258
25.745
11.6529
4.50017
1.89404
0.74325
-0.336295
-0.343436
2.78457
9.78181
18.6421
25.595
27.9183
26.2371
24.757
28.8551
41.388
60.3514
79.5109
91.7003
92.7678
83.8409
70.5564
59.9348
56.7135
61.5
71.1266
80.6038
85.4976
83.3717
74.63
63.2408
56.7988
65.0219
96.0209
151.023
220.358
284.302
319.817
311.006
257.52
175.932
92.4014
30.6167
1.71193
1.61781
16.6637
32.9612
43.5208
49.1228
53.9077
59.9438
64.8119
63.7005
53.4139
35.1162
14.0514
-3.35247
-12.4073
-11.5829
-2.34443
11.7942
26.0641
35.2796
35.7114
27.4314
15.4908
8.32111
13.1559
30.9933
54.7139
72.3533
74.2368
59.4315
37.1008
21.4581
23.2985
43.5699
73.1831
99.092
112.114
111.781
104.734
98.7712
97.0166
96.3305
90.8965
77.9544
61.0346
48.1835
46.2607
55.9029
70.5249
80.5432
79.8367
69.6097
57.4363
51.8007
56.2003
66.6385
74.5235
72.806
60.8927
45.4391
36.4078
40.5795
57.2736
78.4804
93.4676
94.9346
82.8666
64.2879
49.1408
44.5429
51.2137
63.6527
73.6242
74.5864
64.7225
47.3346
28.9314
16.3755
14.5789
24.9214
44.6906
67.6807
85.5504
91.0984
82.1397
64.6757
51.9913
59.3398
95.5016
156.137
223.046
271.108
279.536
242.01
169.87
86.9717
19.0916
-16.1241
-14.5464
15.326
57.7911
95.8515
116.578
114.964
95.3748
70.2952
55.7873
64.015
95.9473
138.96
172.166
177.235
149.395
101.158
55.7162
33.6872
41.138
66.6517
89.6322
94.6898
81.5753
64.878
63.0268
84.3106
120.426
151.847
161.943
149.374
129.585
124.059
144.197
182.902
219.392
234.336
224.057
203.55
195.618
213.879
251.862
285.557
288.032
246.331
169.672
84.4992
20.7147
-2.75633
14.5938
57.1397
102.125
130.345
133.971
118.883
100.676
96.2095
114.138
149.836
187.621
209.799
0
1e-006
1.1e-005
3e-005
4.2e-005
3e-005
-9e-006
-5.4e-005
-6.5e-005
-1e-005
9.4e-005
0.000178
0.000152
-2.7e-005
-0.000283
-0.000434
-0.000308
9.2e-005
0.000512
0.000559
-2.6e-005
-0.001071
-0.001883
-0.001517
0.000672
0.004436
0.004648
-0.029731
-0.062544
-0.028098
0.081824
0.204617
0.227101
0.063682
-0.240942
-0.472437
-0.38638
0.113505
0.80054
1.12115
0.590913
-0.744201
-2.06219
-2.20792
-0.52855
2.33522
4.37512
3.18356
-2.32202
-10.5896
-17.5907
-18.7152
-11.5916
1.88755
16.0198
24.1634
22.6069
13.0673
2.00031
-3.00582
2.24517
15.8898
31.0493
39.9953
38.9333
30.3495
21.3338
18.7991
24.5808
33.8716
38.2609
32.0974
18.1731
8.76633
20.4633
64.8265
140.066
228.725
303.708
339.9
325.612
267.907
188.968
115.595
67.5325
50.464
56.5793
71.3499
81.9228
82.5684
75.2411
66.1819
61.4336
63.6889
71.732
81.7905
89.5205
91.6837
87.3062
77.8917
66.8303
58.0388
54.1752
55.2852
58.8118
60.968
58.7489
51.3884
40.2791
27.7502
15.6444
4.77326
-4.48422
-11.2474
-13.8813
-10.981
-2.89335
7.50305
15.553
17.0531
10.5324
-1.79361
-15.0993
-24.4428
-27.2038
-24.1545
-18.6389
-14.6013
-14.6006
-18.9196
-26.0014
-33.6796
-40.3536
-45.4121
-48.9384
-51.1138
-51.796
-50.7071
-47.8174
-43.7989
-39.9131
-37.3834
-36.6689
-37.0739
-37.0459
-35.0519
-30.5511
-24.4985
-18.8886
-15.7559
-15.9905
-18.7839
-22.0183
-23.2656
-21.0062
-15.2409
-7.42803
0.306001
6.08737
8.97517
9.12345
7.36184
4.69429
2.00525
0.125198
0.156258
3.57889
11.6376
24.1976
38.6631
50.3303
54.6691
50.9322
44.9306
48.6967
75.8627
134.169
218.847
311.267
384.68
415.114
392.28
324.671
236.031
154.613
100.974
80.5333
84.0956
95.4332
100.714
94.7712
81.2727
68.0452
61.1178
61.304
64.7932
66.5312
63.6286
56.6325
48.352
41.5901
37.4391
35.1933
33.5155
31.6122
29.5858
27.777
25.9539
23.2048
18.7316
12.9642
7.8751
6.12662
9.42255
17.1189
26.3217
33.4544
36.2626
35.1856
32.9857
33.0406
37.4004
45.9724
56.9936
68.3762
78.7788
87.6308
94.3326
97.7022
96.3021
89.5316
78.6657
66.7919
57.5215
53.0858
53.1736
55.2909
56.376
54.6047
50.1528
44.5864
39.3757
34.8568
30.1753
24.1942
16.6725
8.67186
1.96858
-2.03689
-3.10912
-2.20104
-0.790501
-0.005969
-0.114945
-0.65066
-0.981554
-0.834622
-0.469152
-0.39524
-0.935884
-1.84096
-2.33608
-1.7412
-0.121274
1.54922
2.04329
1.03811
-0.201932
0.591005
4.78169
10.8128
13.9652
9.21163
-4.1015
-18.7825
-20.8158
4.11905
61.4849
141.518
220.429
269.943
270.588
221.543
141.295
58.5879
-1.21418
-26.8392
-23.4627
-6.57515
8.08943
12.3157
7.19811
-0.688215
-5.12425
-4.14949
-0.081406
3.22655
3.42415
1.04699
-1.32205
-1.0718
2.74719
8.95771
15.0811
18.7063
18.6426
15.3326
10.4666
6.06284
3.46691
2.91756
3.75244
5.02131
6.15174
7.24626
8.72364
10.7237
12.7164
13.6523
12.6087
9.46739
5.10054
0.982658
-1.59051
-2.14361
-1.17516
0.235233
1.08271
0.942401
0.058309
-0.887124
-1.23551
-0.704829
0.500848
1.83803
2.73316
2.85803
2.28277
1.3856
0.653489
0.38701
0.576056
0.944107
1.13763
0.959355
0.478269
-0.046408
-0.3616
-0.365474
-0.157898
0.059533
0.133891
0.053496
-0.07372
-0.126347
-0.047938
0.120153
0.262112
0.229665
-0.070305
-0.588115
-1.06472
-1.03118
-0.182911
1.2874
2.53078
2.3994
0.299599
-2.991
-5.354
-4.58482
-0.278693
5.04115
6.88213
1.90856
-8.5959
-17.4593
-14.3329
8.41749
49.9331
99.0217
138.174
151.781
134.082
92.2151
42.5414
2.41889
-17.8589
-18.5551
-8.1013
2.99708
7.9681
6.09844
1.09095
-2.57436
-2.67788
0.075243
3.36092
5.14463
4.78297
2.92386
0.697849
-1.00693
-1.74141
-1.39182
-0.048743
1.95974
4.00093
5.29709
5.29115
4.03326
2.26359
1.14532
1.64006
4.05945
7.99444
12.6289
17.2103
21.408
25.334
29.2152
33.0417
36.3717
38.445
38.6275
36.7819
33.452
29.6273
26.2305
23.6605
21.5867
19.2101
15.8161
11.2849
6.24697
1.80733
-1.05089
-1.97222
-1.37057
-0.133251
0.906711
1.39201
1.47291
1.4927
1.65107
1.8098
1.69511
1.20022
0.57949
0.320901
0.831058
2.13561
3.79553
5.1439
5.69125
5.3735
4.54816
3.75032
3.35488
3.37614
3.46902
3.18504
2.23828
0.774983
-0.603176
-1.18234
-0.685855
0.334653
0.72097
-0.413866
-2.66209
-4.01858
-2.01111
4.06308
11.4023
14.3009
7.7691
-7.43995
-21.8336
-19.3465
14.934
85.0563
178.285
267.504
321.952
321.347
265.675
175.272
81.0436
10.3255
-24.0666
-26.3337
-11.6843
3.59173
10.0222
7.14399
0.290775
-4.69673
-5.2275
-2.47039
1.90087
4.00333
5.91671
6.59797
5.76969
4.09119
2.70175
2.45606
3.37526
4.70116
5.46357
5.14306
3.96283
2.64232
1.84268
1.75998
2.18519
2.84127
3.71577
5.03257
6.93557
9.1458
10.9599
11.6565
10.9238
8.91386
5.96209
2.31339
-1.7787
-5.57433
-7.54658
-5.9728
-0.482772
6.55388
10.3159
6.28932
-5.56052
-17.9551
-17.6115
8.65139
65.608
144.03
221.865
272.794
278.2
236.175
162.518
83.0709
21.6893
-9.62997
-13.597
-2.91643
8.25717
11.5191
6.49002
-1.82444
-7.81097
-8.82579
-5.82724
-1.58435
1.62639
3.18526
3.77522
4.24554
4.80792
5.03038
4.44917
3.07449
1.41903
0.100284
-0.529749
-0.559258
-0.322975
-0.113306
0.008686
0.100393
0.187996
0.222776
0.129751
-0.077698
-0.254193
-0.241256
-0.014421
0.285838
0.498002
0.694064
1.31342
3.00612
6.21363
10.7258
15.4969
18.9928
19.8669
17.673
13.1247
7.77743
3.2639
0.550698
-0.405479
-0.362154
-0.174295
-0.247591
-0.408638
-0.255919
0.380498
1.21912
1.73004
1.60263
1.07147
0.822374
1.4892
3.1296
5.07918
6.32669
6.16864
4.70748
2.77558
1.37432
1.02099
1.47702
2.07303
2.25604
2.03721
1.92301
2.46516
3.77531
5.44086
6.82889
7.4216
6.91852
5.16577
2.11984
-1.83659
-5.47283
-6.81875
-4.26667
1.73485
7.7347
8.55586
0.925757
-12.3018
-20.5017
-8.55298
35.4345
111.679
204.74
287.495
332.091
322.54
262.383
173.025
83.6894
18.4917
-12.6687
-15.1867
-3.49715
7.98304
11.4977
7.26369
0.20881
-4.74231
-5.67456
-3.74004
-1.22413
0.403234
1.18891
1.98941
3.35488
4.98497
6.02338
5.84383
4.55106
2.89113
1.65232
1.18843
1.24062
1.27679
0.958045
0.375703
-0.110628
-0.174825
0.158564
0.536547
0.590729
0.292358
0.026098
0.291219
1.27328
2.6281
3.70969
4.14757
4.31097
5.28943
8.25195
13.5976
20.3725
26.4953
29.7236
28.7512
23.905
16.9403
10.1503
5.30518
2.97373
2.57881
2.97994
3.18125
2.78335
2.00541
1.40488
1.49284
2.44473
4.01239
5.62667
6.64128
6.6181
5.57776
4.0383
2.73521
2.18263
2.35792
2.72546
2.61555
1.75153
0.643895
0.381674
2.05123
6.01008
11.5928
17.2836
21.5055
23.3195
22.6021
19.7828
15.4578
10.3026
5.43838
2.71504
4.23699
10.8846
20.5742
27.8905
26.3228
12.7985
-7.91801
-22.2718
-12.5081
34.358
117.502
218.836
-0
-5e-006
-1.7e-005
-3.2e-005
-4.7e-005
-5.1e-005
-4.2e-005
-3.1e-005
-3.9e-005
-8e-005
-0.000149
-0.000212
-0.000227
-0.000177
-9.9e-005
-7.4e-005
-0.00017
-0.000379
-0.000588
-0.000626
-0.000394
7e-006
0.000224
-0.000274
-0.002014
-0.003764
0.009593
0.030746
0.036285
0.013744
-0.051876
-0.130877
-0.161316
-0.102563
0.0284
0.128448
0.065656
-0.19261
-0.528315
-0.689363
-0.480163
0.052082
0.546174
0.513574
-0.304903
-1.57434
-2.36927
-1.54331
1.64455
6.98248
13.2317
18.607
21.5801
21.5268
18.9627
15.1709
11.505
8.81099
7.17786
6.19455
5.33651
4.34984
3.34322
2.66639
2.68454
3.50704
4.94622
6.50506
7.57694
7.69152
6.76474
5.20526
3.78622
3.27407
4.00841
5.71683
7.68416
9.21483
10.1442
11.0095
12.7378
16.0655
20.9424
26.4294
31.1516
33.9605
34.3835
32.6189
29.2034
24.8301
20.4425
17.4497
17.525
21.544
28.1923
33.5302
32.5916
23.1201
9.2581
2.35617
16.9784
63.0077
137.957
224.301
294.834
324.167
300.694
232.57
144.033
64.1499
13.8483
-1.8353
7.12564
23.6585
33.3867
30.777
19.3137
6.83962
-0.017992
0.864371
7.30807
15.2963
21.5919
24.9486
25.7913
25.2641
24.3962
23.9077
24.2566
25.6384
27.8673
30.3662
32.276
32.9139
32.1614
30.5156
28.8131
27.6986
27.2846
27.2559
27.2691
27.267
27.5585
28.5072
30.1945
32.25
34.097
35.4499
36.5704
38.0602
40.3337
43.0167
44.8797
44.3177
40.2989
33.1456
24.4659
16.4696
10.9265
8.38952
8.11861
8.62364
8.53854
7.23508
4.96599
2.57167
1.01176
0.883306
2.14852
4.09998
5.63598
5.79634
4.4013
2.40206
1.64623
3.9934
10.1149
18.7786
27.0632
31.6345
30.4006
23.6929
14.1178
5.25885
-0.1182
-1.36718
0.161442
2.22845
3.11761
2.47644
1.04762
-0.247095
-1.08063
-1.74857
-2.48075
-2.85555
-1.94669
0.612695
3.59156
4.31176
0.561021
-6.80006
-12.3807
-7.75962
14.1342
53.8991
103.011
146.079
167.397
158.516
122.598
72.9003
26.2848
-4.62941
-16.2413
-13.4846
-5.051
2.2213
6.33392
9.24034
13.4972
19.3052
24.0587
24.3973
18.973
9.86151
1.53634
-1.76993
1.52345
9.73737
19.3038
27.0163
31.7529
34.6226
37.7074
42.4351
48.7584
55.3573
60.7225
64.1664
66.1485
67.8026
70.2221
73.9851
79.0224
84.7862
90.3636
94.5179
95.817
93.1544
86.5649
77.7458
69.582
64.8356
64.565
67.3694
70.1788
70.1536
66.3975
60.3038
54.3453
50.0623
47.066
43.5484
38.1403
31.489
26.2274
25.2155
29.2792
36.2023
41.898
43.0089
39.0559
32.6287
27.3213
25.1634
25.3318
25.2565
23.1544
19.9543
18.9599
23.3539
33.4964
46.05
55.7497
58.8881
55.7203
50.0902
46.4883
46.5676
47.8529
45.5787
36.5858
22.2924
8.51184
2.14015
6.83361
20.7686
37.854
51.3637
57.5117
56.5814
51.2036
43.8024
35.422
26.9301
21.1953
23.7735
40.5573
73.2157
115.402
152.991
169.416
153.609
106.349
40.9872
-22.187
-65.0828
-79.5462
-69.7459
-48.3443
-29.105
-20.3522
-22.515
-30.411
-37.9952
-42.3281
-44.51
-47.6599
-53.8383
-62.1977
-69.3851
-71.7577
-67.8335
-59.3791
-50.3722
-44.9685
-45.3983
-50.967
-58.5452
-64.0541
-64.1581
-57.3212
-44.0953
-26.6246
-7.71072
10.0453
24.8012
35.7551
43.1915
48.4742
53.8668
62.0177
74.8817
92.4097
111.757
127.856
135.245
130.981
116.713
98.486
83.9538
78.4455
81.9739
89.2253
92.7169
87.295
73.2777
56.3843
44.3004
42.2202
50.0127
62.6413
73.3832
77.8253
75.9971
71.6564
69.4601
71.9733
78.3575
85.2828
89.304
89.06
85.8246
82.5184
81.7249
83.9272
87.1542
88.103
83.9457
74.0151
60.1054
45.6273
33.8341
26.3368
22.6472
20.7366
18.1577
13.245
5.80794
-2.77144
-9.89751
-12.5604
-8.76266
0.834734
12.1261
18.7743
15.3572
1.84532
-13.7563
-17.2462
4.93851
57.348
130.103
200.826
243.844
242.288
196.354
123.294
48.7185
-5.12807
-28.1091
-23.7865
-4.52085
16.2194
29.6481
33.0525
28.1028
18.2066
6.82789
-3.03117
-9.1339
-10.7399
-9.46762
-9.08929
-13.752
-25.3428
-41.6649
-56.9782
-64.7803
-61.2276
-47.2417
-27.8816
-9.54274
3.51463
11.1535
16.9375
25.5694
39.9652
59.4829
80.3293
97.7669
108.845
114.036
116.772
121.368
130.389
143.024
155.481
163.175
163.285
156.164
145.189
134.839
128.508
126.928
128.257
129.318
127.55
122.096
114.106
105.908
99.6794
96.3591
95.1766
94.2654
91.5125
85.6646
76.9741
67.1247
58.4938
53.0191
51.2762
52.1707
53.3226
52.221
47.5492
39.9251
31.6318
25.4791
23.3073
24.9477
28.2358
30.1711
28.5779
23.2223
15.9533
9.69621
6.8236
7.65756
10.2124
11.271
8.40954
1.87338
-5.09716
-8.04601
-4.48058
3.6261
10.217
9.15585
-0.015984
-8.48679
-0.144438
40.307
116.921
215.993
308.583
362.053
355.363
289.572
187.743
84.0728
8.06923
-27.2436
-27.7743
-11.1568
4.55245
9.59396
4.49229
-4.0258
-9.26876
-8.77778
-4.44298
0.135695
2.51572
2.58291
1.76163
1.4559
2.09706
3.22285
4.29318
5.21145
6.33962
8.12175
10.6088
13.4358
15.9408
17.6058
18.3028
18.1939
17.6866
17.2945
17.5313
18.7605
21.0777
24.2846
27.9747
31.71
35.1758
38.2357
40.8689
43.0239
44.6
45.4579
45.4436
44.4128
42.1389
38.3109
32.6972
25.4113
17.1478
9.23165
3.09687
-0.305754
-1.06869
-0.276335
0.580578
0.48488
-0.570169
-1.65059
-1.57908
0.183349
3.12979
5.97711
7.4407
6.97235
5.01999
2.69544
1.10622
0.811292
1.64344
3.06317
4.49782
5.63977
6.30681
6.4063
5.73115
4.20739
2.17903
0.410021
-0.438237
-0.398196
-0.377708
-1.5501
-4.17958
-6.84873
-7.04959
-3.22572
3.15068
7.4631
4.94987
-4.61315
-13.3651
-6.82212
29.1829
98.9763
190.737
278.112
330.601
327.651
269.05
175.471
78.8013
7.42483
-25.6313
-25.5314
-9.24111
5.50206
9.20852
3.10928
-4.9667
-7.43477
-1.99985
7.8515
16.1446
18.7121
15.6514
10.5119
7.39669
8.08827
11.0512
12.9766
11.4935
7.19743
3.58182
4.87096
13.0026
25.9389
38.411
44.905
42.8179
34.0723
24.1582
19.1144
22.3359
33.0126
46.9448
59.0031
65.569
65.8182
61.5165
55.7513
51.6291
51.0941
54.4357
60.1792
65.5405
67.4016
63.8872
55.4361
44.8273
35.5641
29.7587
26.7518
23.5487
17.3826
8.198
-0.340589
-2.70421
5.17418
22.8327
44.9324
63.9177
74.1362
74.5463
68.5814
61.4713
56.9084
55.4213
55.2151
54.5124
53.1978
52.6505
54.2932
58.0174
62.1015
64.3156
63.4653
59.8632
54.7302
49.0341
42.7909
35.5808
27.5834
20.2043
15.6907
15.9957
21.6027
30.7768
39.698
43.633
39.2432
27.4164
15.3718
16.2787
44.9221
110.168
207.526
316.452
405.557
444.626
418.182
333.191
216.619
103.448
21.813
-17.4303
-21.5076
-8.24293
5.02129
9.16978
4.67541
-2.4758
-6.44475
-5.26216
-0.784492
3.75882
6.34678
7.07176
7.37207
8.67505
11.287
14.2677
16.3026
16.5781
15.4958
14.5098
15.2888
18.7597
24.3738
30.2098
33.7985
33.4304
29.1284
22.7398
16.9554
13.9283
14.2616
16.9589
20.2751
22.8842
24.6129
26.3222
29.0749
33.1877
37.7099
40.7738
40.4566
35.7549
27.2226
16.8406
7.359
1.24543
-0.172681
2.88765
8.78051
15.1583
19.8399
21.4604
19.8554
15.8895
11.0508
6.88159
4.57703
4.68261
7.07486
11.1144
15.913
20.5859
24.5763
27.9063
31.1193
35.0233
40.1409
46.2599
52.3506
56.991
58.9472
57.917
54.6239
50.4899
46.7993
43.8643
40.6317
35.239
26.2715
14.1686
1.79114
-6.64138
-8.06486
-3.16184
2.99253
3.6742
-4.16065
-14.9198
-13.7592
17.6408
90.6226
199.894
320.879
417.26
455.974
422.468
327.863
204.087
89.3072
11.5752
-21.0454
-19.5672
-4.37948
6.77966
6.57422
-1.70684
-9.72395
-10.9492
-4.54645
5.25554
12.7867
14.6292
11.2042
5.77674
2.09874
2.32342
6.22802
11.8222
16.7129
19.3328
19.5569
18.4909
17.6492
18.1727
20.2832
23.378
26.5055
29.0763
31.2476
33.76
37.3326
42.0567
47.1774
51.4232
53.742
53.9754
52.9608
52.0511
52.2576
53.5608
54.8799
54.6378
51.6598
45.846
38.1594
30.0945
22.9125
17.1238
12.517
8.62024
5.18851
2.4517
0.909862
0.885465
2.13294
3.81147
4.86154
4.56842
2.99693
0.982894
-0.322164
-0.119261
1.57534
3.9364
5.82086
6.44607
5.90303
5.05448
5.00198
6.34301
8.78004
11.2316
12.4804
11.9406
9.89738
7.16057
4.33243
1.41869
-1.85013
-5.1761
-7.15334
-5.81871
-0.36113
7.14795
11.791
8.64388
-2.77935
-15.1891
-14.543
13.6256
75.2234
161.019
247.318
304.877
312.04
265.331
181.43
89.2989
16.7693
-21.1269
-26.3097
-13.0319
1.89563
7.91715
4.14686
-3.31956
-7.23686
-4.14929
4.14486
12.7233
17.1111
15.8069
10.6636
5.14896
2.14032
2.45635
4.87362
7.26374
8.12035
7.3954
6.42498
6.87492
9.5141
13.7192
17.8252
20.217
20.3331
18.9283
17.4413
16.9786
17.583
18.4523
18.7756
18.56
18.7333
20.3949
23.7855
27.7984
30.4348
29.949
25.9457
19.6387
13.1054
8.19032
5.62534
5.03
5.47355
6.16662
6.74542
7.10563
7.11351
6.51097
5.24613
3.73315
2.79524
3.13896
4.79838
6.95899
8.33391
7.95804
5.85295
3.08983
1.1735
1.07072
2.66003
4.86729
6.32135
6.25381
4.89213
3.16579
2.01521
1.68664
1.53435
-0
-1e-006
-4e-006
-1e-005
-1.5e-005
-1.6e-005
-1.2e-005
-6e-006
-9e-006
-3e-005
-6.8e-005
-0.000103
-0.000114
-8.9e-005
-4.7e-005
-3.6e-005
-9.6e-005
-0.000223
-0.000351
-0.000387
-0.000276
-7.1e-005
5.5e-005
-0.000122
-0.00077
-0.0016
0.000654
0.006418
0.016041
0.010122
-0.015117
-0.04564
-0.064005
-0.031871
0.037597
0.092034
0.061254
-0.079131
-0.271733
-0.375219
-0.261478
0.038218
0.315006
0.283992
-0.17824
-0.892543
-1.35699
-1.02297
0.335956
2.39615
4.38508
5.49899
5.40688
4.52601
3.87137
4.53619
7.06689
11.1074
15.5229
18.9068
20.2186
19.2111
16.4427
12.9289
9.65767
7.20384
5.63889
4.67354
3.89977
3.01169
1.90051
0.643548
-0.544619
-1.38061
-1.59067
-1.05648
0.130039
1.62272
2.93677
3.58617
3.37196
2.46517
1.32044
0.490536
0.3183
0.792857
1.58418
2.24022
2.42057
2.05639
1.37205
0.720196
0.384153
0.510421
1.08366
1.91492
2.73682
3.28383
3.38643
3.12694
2.92602
3.33412
4.52878
5.84265
5.85362
3.27109
-1.77415
-7.04143
-9.00944
-5.32287
2.66956
9.4682
8.44028
-2.73897
-17.5743
-21.0853
3.53739
64.6857
154.267
247.561
312.48
324.241
277.567
189.571
91.4904
14.0334
-25.793
-29.6357
-12.8413
5.94376
14.5357
11.0726
1.48112
-6.41595
-8.00353
-3.56431
3.30207
8.57543
9.91694
7.24334
2.32057
-2.32362
-4.41688
-2.64137
2.80022
10.1645
16.8929
20.8283
21.3106
19.3707
17.1602
16.8903
19.9661
26.8924
37.5544
51.3972
67.2058
82.773
95.2069
102.022
102.606
99.0229
95.2963
95.241
100.163
107.902
113.947
114.157
107.215
95.4134
83.2204
74.6746
71.2622
71.5714
72.6114
71.9139
68.8359
64.4185
60.3202
57.4558
55.4815
53.2093
49.5912
44.5216
38.9145
34.1311
31.1699
30.1633
30.3273
30.4004
29.4466
27.2685
24.4375
22.0591
21.1485
22.017
23.9884
25.5922
25.2339
21.9875
16.2348
9.57423
3.88407
0.254269
-1.64801
-3.11155
-5.11007
-7.18128
-7.53974
-4.71471
0.430472
4.12574
1.96242
-6.86915
-16.1012
-12.8559
16.7282
78.9521
165.757
254.851
317.737
332.41
293.946
217.086
129.217
57.5059
17.3448
7.95243
16.5557
27.6263
31.3136
26.5933
18.6359
13.4089
13.4307
17.0713
20.8394
22.2207
20.987
18.4754
15.9365
13.5431
10.7367
7.45128
4.76965
4.55831
8.01606
14.5356
21.5897
26.0296
25.9565
21.9821
17.0741
14.9769
18.1651
26.446
37.0451
46.19
51.1868
51.9388
50.8841
51.2308
54.8347
60.7749
65.6864
65.63
58.5297
45.5688
30.6235
18.3634
11.7832
10.9186
13.2443
15.3928
15.0164
11.7611
6.98832
2.65557
0.132666
-0.412351
0.119722
0.370977
-0.780341
-3.62687
-7.42528
-10.5341
-10.9573
-7.34494
0.114054
9.38358
17.2542
20.6996
18.4711
11.9347
4.50668
0.104903
1.13694
7.40067
16.3116
24.3337
28.7594
28.7779
25.3436
20.0951
14.1993
8.08116
2.3426
-1.50313
-0.993983
5.77943
17.8207
29.6015
32.5966
19.9485
-7.6874
-38.933
-54.2336
-34.4777
28.1235
122.852
221.891
290.963
304.346
256.616
164.901
60.5763
-25.0575
-73.456
-83.7921
-68.8855
-45.8523
-27.3178
-17.6091
-14.4632
-13.5835
-12.4162
-10.9445
-10.1417
-10.0925
-9.49217
-6.7298
-1.5513
4.3825
8.36396
8.40895
4.69246
-0.320773
-2.98465
-0.278941
8.59313
21.678
34.9333
43.8797
45.5873
40.027
30.2843
21.5287
18.5199
23.4051
34.7179
48.245
59.1189
64.3032
63.9832
61.0041
58.9498
59.9131
63.3044
66.2882
65.5096
59.1413
48.118
35.868
26.7806
24.1634
28.6782
37.9759
47.7605
53.7846
53.891
48.9369
42.1142
37.0251
35.6271
37.2353
39.1632
38.7453
35.3447
30.9387
28.8921
31.5334
38.1803
45.1318
47.7073
43.3169
33.5954
24.0875
21.3931
29.2166
45.79
64.2468
75.7506
74.0265
58.665
35.3654
13.1274
-0.21526
-1.60648
6.03622
15.6644
19.9652
15.2542
3.55783
-8.23132
-12.0819
-3.61334
14.4905
32.837
40.0003
29.7262
6.84979
-12.276
-6.40364
39.4425
123.934
226.648
314.985
358.108
340.819
270.245
171.849
77.2876
10.7488
-19.2674
-19.7128
-5.86951
7.64431
12.911
9.71785
2.66546
-2.917
-3.80281
0.337861
7.57259
14.8876
19.33
19.0957
14.3664
7.43062
1.9405
1.26848
6.58427
16.0397
25.568
30.9134
29.8196
22.953
13.2832
4.29155
-1.73879
-4.34578
-4.29931
-2.49149
0.830714
5.9375
12.9269
21.0878
28.9633
35.108
38.8875
40.853
42.2748
44.1898
46.6588
48.7582
49.3437
47.8851
44.8994
41.6137
39.1056
37.6398
36.6161
35.1049
32.6404
29.5128
26.5654
24.5439
23.5586
23.089
22.4307
21.2646
19.85
18.7277
18.2074
18.0969
17.8218
16.8339
15.0067
12.6564
10.3254
8.38675
6.81101
5.43204
4.14022
3.08436
2.61611
3.04724
4.50558
6.93909
10.1096
13.6875
17.2552
20.374
22.6239
23.7217
23.6416
22.5056
20.1871
15.9815
9.04396
-0.705255
-11.5046
-19.5906
-20.7164
-13.0578
0.157062
10.8544
10.268
-4.4194
-24.9152
-32.6301
-6.89158
62.7926
167.245
277.577
356.201
373.975
324.353
226.605
116.232
28.0077
-19.0311
-26.7531
-12.1285
4.99395
12.4251
9.17627
1.8518
-2.3694
-0.666512
4.71551
9.43652
10.7607
8.88932
6.03984
4.37716
4.44125
5.25361
5.44159
4.33556
2.71198
2.53532
6.27701
15.7631
31.242
51.1043
72.3996
92.2297
109.248
124.544
140.768
159.899
181.13
200.392
212.419
213.993
206.593
195.883
188.481
187.897
192.122
194.861
189.883
175.243
154.828
136.037
125.138
123.528
127.325
130.245
127.737
119.413
108.571
99.311
93.9067
91.9301
91.4773
91.2189
91.1187
91.5821
91.7219
89.0403
80.8892
66.7659
49.7264
35.3866
28.6193
30.3921
36.7204
40.8135
37.3934
26.0547
11.6562
1.2623
-0.239507
6.88297
17.5286
25.1378
25.746
20.1059
12.664
8.24098
8.95032
13.2433
17.5748
19.1007
17.518
14.5986
12.3431
11.4142
11.0506
10.3412
9.61992
10.1745
12.3384
13.8874
10.6813
0.23467
-13.6654
-19.3226
-0.937257
52.8043
139.935
241.844
328.698
371.799
356.654
289.665
194.749
101.941
34.309
0.042603
-7.24473
-1.4105
4.90412
5.76387
2.12684
-1.69884
-2.28552
0.695639
5.05946
8.16693
8.6239
6.80945
4.24792
2.46874
2.37587
4.10963
7.38117
11.8315
17.2532
23.4966
30.2991
37.1889
43.3838
47.9825
50.2032
49.639
46.4338
41.2487
35.3592
30.4723
28.4257
30.5897
36.9888
45.8952
54.1628
58.4082
56.8849
50.7138
43.404
38.9323
39.4821
44.2056
49.8905
53.2036
52.8515
50.0038
46.9842
45.0516
43.2688
39.2795
31.4691
20.9853
11.7341
8.3139
13.143
24.6175
37.6105
45.9761
45.642
36.6086
22.7162
9.7549
2.83103
4.17849
12.4659
23.5429
32.3891
35.3697
31.8944
24.4787
17.298
13.7505
14.4789
17.2079
18.4968
16.2574
11.5607
8.1388
9.95342
18.2346
30.2586
40.5632
44.1602
39.6546
29.8879
19.6597
12.4466
8.31512
4.56421
-1.22685
-8.2246
-12.1381
-8.36253
3.65977
18.4529
27.198
24.4755
14.3873
11.3307
33.4625
91.6664
180.418
276.688
348.794
370.939
335.425
255.888
159.961
75.7737
20.0719
-6.1323
-13.1744
-13.7553
-15.5433
-19.062
-20.9115
-18.8675
-14.6376
-12.5877
-16.187
-24.9275
-34.3354
-38.8803
-35.6322
-26.1332
-15.2829
-8.07072
-6.63199
-9.30431
-12.2337
-12.0311
-7.92014
-1.88533
3.14015
5.4278
5.61894
6.28828
10.0107
17.4311
26.5269
33.72
36.0447
33.185
27.9286
24.7951
27.5131
36.9697
50.6653
63.8806
71.8819
72.0401
64.8312
53.2975
41.7044
33.9547
32.2353
36.3616
43.898
51.0108
54.0588
51.153
43.0132
32.6519
23.7745
18.9842
18.4831
20.365
22.1342
22.5302
22.2166
23.1165
26.8751
33.5538
41.4014
47.7742
50.449
48.6135
43.022
35.5339
28.4654
24.1623
24.5742
30.561
41.1701
53.2921
62.43
64.4552
57.4827
43.0873
25.8917
11.7412
5.31233
8.63019
20.7606
38.4605
56.9387
70.6998
74.6873
65.9404
45.5764
19.783
-1.62114
-9.68483
-1.72354
16.0361
31.1366
32.5555
19.2183
3.67648
7.36252
48.7811
130.963
236.012
330.736
381.387
369.411
300.007
198.801
99.0925
26.9054
-8.1584
-12.6164
-1.36025
11.7926
19.8501
22.5466
22.5996
22.0425
20.913
18.547
15.4645
13.7798
15.7379
21.7213
29.4435
35.1963
36.1014
31.7002
23.9736
15.8632
9.5458
5.66879
4.04127
4.7868
8.61478
15.8039
24.9154
32.4739
34.3007
28.1453
15.7223
2.54539
-4.77075
-2.11852
9.91604
26.6396
42.0799
52.2161
56.5394
57.0823
56.1406
54.4863
51.4171
46.2103
39.7558
34.7405
34.1073
38.949
47.3926
55.4211
59.1668
57.1357
50.8828
43.8337
39.1121
37.7929
38.5335
38.9639
37.4353
34.2384
31.4565
31.6268
35.9973
43.4036
50.4103
52.882
48.2889
37.4298
24.5379
15.4656
14.7001
22.7815
35.7769
47.3134
51.9535
48.1012
38.6828
29.3709
25.4706
29.3933
39.9089
53.1686
64.5705
70.4631
69.0231
60.3324
46.0231
28.8656
12.2757
-0.505488
-7.16846
-6.95838
-1.07559
7.40508
14.1043
14.8719
8.26135
-2.04834
-6.73478
6.4131
46.8788
114.926
198.203
274.195
318.647
316.163
267.233
188.423
105.171
41.0082
8.57775
6.51051
22.9033
42.3662
52.702
48.4305
30.9694
6.36415
-17.499
-33.2474
-35.6202
-22.8618
2.46
33.7587
62.1927
79.6851
81.9631
70.3801
8.54363
7.82342
5.42007
2.83737
1.56387
1.91893
2.79521
2.63742
0.983226
-0.807594
-0.436857
3.34596
9.216
13.8429
14.4182
11.7122
10.9349
19.5356
42.5468
78.4
118.162
148.99
159.892
146.471
112.62
68.2912
25.4113
-6.15673
-20.9135
-18.1901
-1.89703
20.4609
39.9313
49.1655
45.7581
33.7552
21.834
18.5856
27.4619
44.2227
59.287
63.4495
54.1232
37.3739
24.3797
24.9043
41.2371
66.785
89.5508
98.8506
90.9472
70.1028
45.7061
27.1245
19.3933
22.1383
31.3888
42.5989
52.6656
60.4836
66.0478
69.2139
69.4662
66.286
59.7321
50.7628
40.9552
32.1627
26.2757
24.6969
27.774
34.4992
42.308
47.2135
45.7159
36.7406
22.8989
9.96248
3.85134
7.90063
20.6954
36.3452
47.4182
48.7905
40.3147
26.5632
13.9631
7.40295
8.27167
14.5359
22.8295
30.7037
38.2748
47.5638
60.499
76.9375
93.9377
106.845
111.441
106.579
95.4735
84.2974
79.4898
84.2788
96.6767
110.433
118.122
114.913
100.826
80.3491
60.1526
45.5678
39.0193
39.7237
45.1856
52.9745
61.763
70.8674
79.3237
85.0203
84.9466
77.6667
66.1507
58.7382
67.5369
103.68
171.143
262.532
358.604
433.994
466.396
445.648
378.769
287.894
201.849
145.046
128.472
147.028
183.689
218.233
236.022
233.041
215.465
194.9
181.975
181.768
192.611
208.045
220.238
223.681
216.568
200.275
178.008
153.08
128.075
104.815
84.5311
67.9725
55.5648
46.9842
41.5643
38.6372
37.881
39.0063
41.2184
42.9502
42.169
37.2597
28.4613
18.6183
12.1221
12.8929
22.3842
38.2795
55.264
67.6248
72.2307
70.0091
65.1119
62.0982
63.0675
66.1087
66.8175
61.186
48.4428
32.049
18.2266
12.7813
17.8018
30.3411
43.6081
50.4583
46.9454
34.5567
19.2326
8.27543
5.87496
10.7507
16.9123
17.7577
10.6777
-0.983155
-9.54977
-8.12167
4.22422
20.7689
30.5742
25.2235
4.37993
-23.3601
-45.368
-52.3978
-44.4605
-30.5301
-22.7553
-28.6361
-46.7079
-67.8697
-81.7465
-83.647
-77.093
-70.9962
-73.0413
-83.8841
-96.4525
-100.938
-91.8805
-72.9466
-55.3107
-50.2486
-59.7015
-71.4858
-63.1405
-13.2867
84.9462
216.166
346.296
436.374
459.47
412.592
316.427
204.3
106.505
39.0201
1.50121
-15.9234
-23.426
-25.76
-22.7185
-13.5486
-0.732505
9.98881
13.4488
8.94599
0.599476
-5.72111
-6.36287
-1.67276
5.2584
11.8734
17.918
24.5675
31.4946
35.5078
32.2435
19.9035
1.94871
-13.5887
-18.7449
-10.9258
5.61975
22.6628
33.5651
37.7379
40.3614
47.4447
60.4448
74.8338
83.8083
84.1888
79.8298
79.8047
91.8154
115.985
143.814
162.976
164.99
150.262
126.82
104.428
87.8932
75.4915
62.3208
45.9373
29.3793
19.1254
19.8362
29.8537
41.77
47.7246
45.053
37.9664
33.8861
37.1436
45.297
50.9809
48.0485
37.0136
25.4188
22.7886
33.7073
54.6962
76.8082
92.1054
99.1747
103.095
110.741
124.779
141.206
152.349
152.983
144.481
134.055
129.699
134.792
146.008
156.265
160.393
158.883
157.042
160.265
168.912
176.793
174.41
155.287
121.357
84.3382
62.2222
72.5595
125.183
217.331
333.232
447.735
533.277
568.329
544.342
468.86
362.761
252.859
163.017
107.172
86.9374
94.0023
115.14
137.265
150.759
150.552
135.957
109.959
78.3296
47.9874
24.8313
11.7545
7.81139
9.27579
11.7381
12.3122
10.5243
7.57224
4.84697
2.98715
1.83919
1.11782
1.01346
2.05492
4.23482
6.61996
7.83313
6.97553
4.36676
1.55599
0.151039
0.763035
2.65006
4.28916
4.50618
3.25282
1.57274
0.712278
1.11961
2.24215
3.04892
2.79352
1.5202
-0.065814
-1.02554
-0.673126
0.995905
3.46176
5.81586
7.18347
7.07381
5.72795
4.24489
4.12805
6.57226
11.5909
17.6729
22.3067
23.1974
19.5525
12.4274
4.27729
-2.12905
-4.84468
-3.25963
2.00766
9.51654
17.3547
23.4707
26.1352
24.5902
19.5024
12.7716
6.60608
2.27895
-0.500474
-2.98768
-5.79131
-7.6605
-5.94418
1.33437
13.3226
25.7273
32.8557
31.1827
21.8985
10.3854
2.51203
0.350192
0.795087
-1.47605
-8.39705
-14.4949
-8.37645
20.392
72.9002
136.593
189.224
209.23
187.218
131.293
63.011
6.52629
-23.0428
-25.3406
-11.908
2.51134
8.53319
5.8121
0.432018
-1.10892
3.37758
11.1319
17.3509
19.1546
17.396
15.4386
16.1144
19.2885
21.6693
19.1006
9.07339
-7.7675
-27.9789
-47.1034
-61.5412
-69.527
-70.9654
-66.8865
-59.4137
-51.7199
-47.446
-49.2462
-56.9466
-66.5616
-71.704
-66.8451
-51.1347
-29.6399
-11.0085
-2.52115
-5.71695
-15.7677
-25.1488
-28.9913
-28.5255
-29.8563
-38.7668
-55.6728
0
0
0
-0
-6e-006
-6e-005
-0.000179
-0.000327
-0.00041
-0.000342
-0.000139
2.7e-005
-9.4e-005
-0.000631
-0.001385
-0.001851
-0.001552
-0.000499
0.000585
0.000613
-0.001023
-0.003693
-0.005534
-0.004551
-0.00033
0.004743
0.005756
-0.002804
-0.023622
-0.033001
0.120504
0.334586
0.364835
-0.043819
-0.845668
-1.5683
-1.50024
-0.290909
1.48162
2.31541
0.806055
-2.91046
-6.55183
-6.82083
-2.03735
5.57574
10.2638
6.32167
-6.85219
-21.8616
-25.7365
-7.08264
35.8721
91.7205
139.914
160.801
145.948
102.5
49.0942
5.88224
-15.1997
-14.4905
-1.59959
11.7399
18.1501
16.9218
11.997
8.07035
7.69064
10.7168
15.537
20.5579
24.9164
28.3808
30.9806
32.8152
33.9612
34.2975
33.306
30.1483
24.3817
16.369
7.74217
0.810225
-2.67503
-2.53181
-0.291198
1.79341
2.13349
0.657536
-1.39138
-2.49134
-1.94494
-0.328574
1.03691
1.11251
-0.094318
-1.5579
-1.79458
0.215108
4.43748
9.79161
14.9084
18.9955
22.0878
24.563
26.4393
26.793
24.2445
18.0335
9.17428
0.647182
-3.97537
-2.55373
4.16656
12.9302
20.082
23.9372
25.8332
28.9716
35.8082
45.9159
55.845
61.3484
59.9825
52.6607
42.9836
34.9421
30.5416
28.8973
27.2236
22.8855
15.2335
6.06702
-1.45261
-4.39862
-1.59343
5.76687
14.4003
20.3765
20.9299
16.038
8.95022
4.94271
8.92724
22.7871
43.6069
64.1018
75.3966
70.9315
49.9339
18.5354
-11.6508
-27.4175
-19.0578
15.2266
67.6723
122.904
163.418
176.344
158.788
118.903
71.901
33.1305
11.5059
6.76181
11.6348
17.0279
17.2858
12.3208
5.99531
2.46419
3.0808
5.96902
7.74055
6.2018
1.8984
-2.33045
-3.45937
-0.350722
5.47753
10.7271
12.4174
9.72726
4.39957
-0.357801
-1.76333
0.824582
5.60424
9.54632
10.2268
7.48042
3.38088
0.901586
1.91161
5.92395
10.3293
12.1174
9.92253
5.21254
1.68671
3.24403
11.8014
25.8587
40.9398
51.5202
53.6749
46.8941
34.3515
21.5397
13.6971
13.3457
19.0645
26.3089
29.6526
25.7087
15.0917
2.13616
-7.20129
-8.12428
0.675887
16.7677
35.4955
52.1731
63.813
69.5603
69.9658
65.9188
58.2421
48.0398
37.2646
28.5729
24.6571
27.0649
35.313
47.0546
58.9554
67.874
71.8664
70.5406
64.972
57.7582
52.469
52.6548
59.998
72.7058
85.3942
91.3217
86.1993
71.2856
53.074
39.4546
34.4098
35.1098
34.4929
28.008
19.9956
24.0963
55.8023
121.028
207.825
288.007
329.25
311.663
238.879
137.182
42.7835
-15.7387
-29.7716
-11.1181
17.542
36.1769
36.6184
23.22
6.63297
-4.1397
-6.29481
-2.70522
1.93363
4.57523
4.86877
3.77847
1.9582
-0.650676
-3.85284
-5.98274
-4.21488
3.58239
16.748
31.1411
40.7577
40.912
31.1058
15.5186
0.807677
-7.33046
-6.95262
-0.196563
8.33587
14.3105
15.5917
12.5244
6.93254
1.03363
-3.36555
-5.00982
-3.29549
1.57938
8.39083
15.0671
19.4465
20.2819
17.7203
12.9866
7.52635
2.39717
-1.48549
-2.79952
0.485811
10.7255
28.9898
53.3405
78.6093
97.9336
105.449
98.7919
80.2504
55.8576
33.2393
19.0777
17.3047
28.1448
47.9961
70.2646
87.2009
92.474
83.9579
64.9419
42.8262
25.713
18.5225
21.1187
29.4204
38.8008
47.5381
57.0956
69.3845
83.3526
93.7199
93.5426
79.5478
55.923
33.4915
23.9334
32.3899
53.6581
75.0618
84.9949
81.6544
75.8738
85.7677
125.517
195.014
277.074
344.282
371.821
349.503
286.418
206.21
136.005
94.7951
86.9405
103.403
128.669
148.924
157.292
154.359
144.837
133.079
120.528
106.14
88.6843
68.6699
48.8239
32.6684
22.4901
18.3679
18.6139
21.0687
24.12
26.8371
28.8263
29.7442
29.5334
29.5843
32.6467
41.5356
56.8058
75.3082
90.7314
96.8118
91.481
79.1743
68.8851
69.1568
82.5538
103.558
121.582
127.219
117.827
99.0305
80.9216
71.8148
73.8037
82.6863
91.7313
96.2936
96.1868
94.5885
94.8981
98.1775
102.89
106.715
108.574
108.88
108.138
105.392
98.077
83.7062
62.2539
37.4191
15.2952
1.18172
-2.95998
0.903341
8.56703
15.9631
20.7927
22.6989
22.1616
19.5822
15.4058
10.5786
6.8026
6.01593
9.48707
16.9204
26.4655
35.5511
41.6497
42.9105
38.6554
29.9028
19.5564
11.9544
11.0763
17.9302
28.8577
36.4866
33.8917
20.096
3.21165
-1.74541
19.5676
71.4948
143.346
212.12
252.487
248.7
201.984
129.465
55.4942
0.545856
-26.1119
-27.3305
-13.3821
4.65677
19.2181
27.3619
29.192
26.0768
19.626
11.5056
3.50802
-2.55952
-5.4227
-4.60165
0.258638
10.0171
25.4753
46.0276
68.4187
86.6856
94.4508
88.2343
70.4595
49.0138
33.7664
31.4874
42.1441
59.1817
73.4285
78.4719
74.2514
66.5211
62.7548
67.0687
77.5861
88.0718
92.3683
88.7819
81.134
76.1139
78.5912
88.1057
99.1905
104.859
100.911
88.431
72.7813
60
53.5106
52.6091
53.5461
52.3162
47.0149
38.5562
29.5793
22.7302
19.0248
17.6532
16.9722
15.8288
14.2969
13.806
16.1278
22.0779
30.9155
40.6189
48.6245
53.1276
54.2196
53.9175
55.5553
62.1449
74.9815
92.864
112.272
128.779
138.861
141.695
139.289
135.347
133.002
132.748
131.998
126.974
115.641
99.8937
84.8607
75.4159
71.9308
69.0474
59.1465
38.8984
14.5391
1.02946
14.2149
60.3052
129.066
195.955
233.456
225.474
175.663
105.524
42.8246
7.3033
2.02685
14.9892
28.6675
30.9575
20.7816
6.02926
-3.96065
-5.15751
-0.652452
2.94985
1.34735
-4.11115
-7.79412
-4.16356
7.84552
23.8195
37.2022
43.6303
43.399
40.879
41.0731
46.2974
55.2575
64.8943
72.8865
79.2441
85.4828
92.3864
98.5279
101.021
98.0017
90.9185
84.7509
85.5949
97.0283
117.612
141.412
160.904
170.469
168.714
158.332
144.069
130.208
118.946
109.794
100.642
88.9911
73.4376
54.6172
35.1829
18.7856
8.52825
5.5
8.23084
13.2643
16.9966
17.4253
14.8632
11.5035
9.86914
11.13
14.5157
17.8406
19.0839
17.6027
14.3789
11.5343
11.0919
13.9779
19.7811
27.1726
34.2191
39.212
41.2213
40.2401
37.2629
34.0392
32.5518
34.1289
38.4588
43.3537
45.3118
41.2777
30.6334
16.4234
4.51867
0.741796
6.9057
18.2812
25.6168
20.9984
4.7581
-11.6237
-9.64875
25.7797
95.2061
180.421
250.954
278.347
250.867
179.728
92.9335
20.5739
-19.1881
-26.236
-13.6126
3.31868
15.9112
24.5914
34.3276
47.7215
61.6854
69.4752
65.6667
50.5051
29.8797
11.7014
1.23019
-1.42175
-0.114236
0.327095
-2.96467
-9.41357
-15.6879
-17.6672
-12.5423
-0.37369
15.7699
30.7916
39.6166
39.1951
29.5095
13.5747
-3.92045
-18.2013
-25.735
-24.674
-15.0117
1.07042
19.4971
35.2984
44.6953
46.9383
44.8346
43.1216
45.1729
50.6358
55.595
54.9329
46.3049
32.3552
19.5032
14.2655
19.185
30.9019
42.1397
46.0329
40.1008
27.5445
15.4597
10.7136
16.4143
30.5978
47.5757
61.3362
68.5264
69.7696
68.4171
67.7322
68.987
70.7337
70.2089
66.0167
59.6968
55.035
55.7746
62.9181
73.7709
83.3411
87.4994
85.5005
80.2096
76.2842
77.1163
82.9847
91.0996
97.477
99.2866
95.8344
87.9081
76.311
61.0735
42.4064
22.9234
9.3188
11.6681
39.6688
96.7214
174.946
255.154
312.715
327.536
293.602
222.525
139.013
69.8438
32.1784
27.2334
42.1093
58.6328
63.3644
53.5575
36.1328
21.3666
16.0603
20.0367
27.6117
32.0168
29.6365
21.7529
13.0096
8.03656
8.92533
14.7272
22.4023
28.7766
31.937
31.8016
29.5732
26.9346
25.4516
26.4359
31.0805
40.0203
52.7142
66.9512
78.9317
84.5707
81.6877
71.9831
60.9695
55.46
59.8533
73.1249
88.9237
99.0719
98.569
88.7473
76.3392
68.8527
69.4652
74.6137
76.3171
67.7163
48.3598
25.1435
8.47074
6.03951
18.0574
37.0443
52.0946
54.9748
44.6218
27.1578
12.2036
7.82609
16.7588
35.6597
57.3761
74.4443
82.1034
79.4822
69.0952
55.1447
41.7206
31.4529
25.1855
22.3669
21.5922
21.3491
20.3093
17.8541
14.4268
11.5843
11.5188
16.1616
26.0469
39.6064
53.6858
65.2456
73.1841
78.8583
84.8148
92.4216
100.183
104.605
103.378
98.696
98.3799
112.766
148.625
203.373
263.59
309.494
323.789
299.997
245.847
179.66
121.867
86.1962
75.165
81.5057
93.9324
103.282
105.559
101.412
93.2181
82.5176
69.6189
54.7491
39.336
25.9656
16.9758
12.7215
11.0889
8.71819
3.58909
-3.09298
-7.23457
-4.13505
8.23276
27.26
46.2782
57.4859
55.7612
41.239
19.4712
-1.0742
-12.8143
-12.4038
-1.76409
13.334
26.2443
32.5142
31.5936
26.5239
21.9859
21.628
26.4314
34.458
42.0254
45.6393
43.4796
36.0601
25.7288
15.5561
8.15805
4.89581
5.75193
9.46375
14.2878
18.703
21.8457
23.6943
24.7341
25.3754
25.5636
24.7513
22.4898
18.9542
15.1168
12.2761
11.0901
11.0672
10.8825
9.32888
6.50484
4.11831
4.37575
8.39311
15.1828
21.7066
24.449
21.5025
13.8658
5.00166
-0.80727
-0.830415
4.4427
11.3886
15.2919
13.2705
6.48729
-0.000684
-0.130909
8.73295
22.7181
32.4672
28.6881
9.37179
-15.7802
-27.8418
-8.20733
49.7007
133.654
215.791
265.059
262.515
210.832
132.423
57.5686
9.47049
-5.41548
2.99429
17.3602
23.7455
18.1108
5.56321
-5.32759
-8.69528
-4.09936
4.88136
14.0087
