-1e-005
-0.000129
-0.000382
-0.000662
-0.000758
-0.000525
-6.9e-005
0.000185
-0.000259
-0.001518
-0.002986
-0.003549
-0.002411
-1.3e-005
0.001821
0.000961
-0.003212
-0.008587
-0.011013
-0.007053
0.002706
0.012042
0.0108
-0.010553
-0.056006
-0.081654
0.298052
0.750157
0.687722
-0.342037
-2.04282
-3.23744
-2.49568
0.503047
3.98193
4.62205
0.107297
-8.06598
-14.1637
-11.7834
0.498183
15.6657
21.0453
7.16714
-22.5942
-49.4276
-47.2383
1.46515
91.6549
193.771
266.97
280.371
230.007
140.728
52.2246
-2.33034
-11.9802
10.4269
39.8742
55.2466
49.8241
31.2207
12.9213
4.79006
8.28316
17.9645
26.6385
29.8586
27.4173
22.0625
17.3039
15.725
18.2163
23.7993
29.6215
32
28.5451
18.8744
5.89059
-5.18532
-9.27196
-4.21992
7.87554
21.5281
30.5223
31.0111
23.3431
11.8521
2.72869
0.807472
7.28629
19.4023
32.1503
41.2067
45.2053
45.945
46.8357
50.6703
57.9391
66.8708
75.1854
81.8577
87.7757
94.9441
104.922
117.136
128.565
135.177
134.212
125.931
114.218
105.191
104.251
113.081
128.343
143.257
151.015
148.536
138.627
128.491
125.593
133.058
147.613
161.766
168.219
164.553
154.764
146.677
147.403
159.252
178.603
198.097
210.236
210.244
197.169
173.217
142.083
107.729
73.5868
42.2939
15.7679
-4.61152
-17.7574
-22.626
-18.6039
-6.1945
12.1716
32.8255
52.2334
68.7741
83.1293
97.0389
110.512
119.925
119.164
102.948
71.0692
30.3797
-7.23383
-30.1707
-32.5191
-16.5348
9.28786
34.7752
52.8582
62.1501
65.9496
69.0579
74.9084
83.929
93.8618
101.348
103.816
100.98
95.0029
89.4542
87.3303
88.9352
91.2611
89.1271
78.1849
58.2514
34.2801
14.4727
6.06074
11.3993
26.2566
42.2238
51.0653
48.8544
37.5479
23.0048
11.2753
5.61477
5.71476
9.32959
14.3824
20.3421
27.6784
36.3521
44.6924
49.8769
49.7482
44.212
35.7905
27.968
23.1618
21.4197
20.6842
18.7933
15.2694
11.8439
11.4691
16.3448
26.4308
39.2219
50.5461
55.9128
51.682
36.4378
12.5565
-11.9248
-23.0103
-3.53122
60.0558
169.17
307.328
441.512
532.459
550.164
487.336
363.738
218.126
91.9859
12.5291
-15.9027
-9.05652
9.20929
20.2603
18.2598
9.20101
3.40575
7.22922
19.2479
32.2166
38.5666
35.6637
27.2286
20.5626
21.7182
31.8113
46.2669
57.6348
59.6418
50.645
34.1661
16.5032
3.31182
-3.35047
-5.21946
-5.66603
-6.44265
-5.84621
0.302107
15.6793
40.3212
69.5247
95.8907
113.105
119.181
116.836
111.208
106.131
102.261
97.5127
89.74
79.1714
68.7721
62.1678
61.0919
63.9217
66.4522
64.4648
56.2844
43.3125
28.9135
16.3815
7.6819
3.27695
2.76278
5.51493
10.555
16.3719
21.009
22.7921
21.2086
17.6121
14.9387
16.3847
23.9262
37.2977
53.7415
68.7714
77.5737
76.7867
66.0428
48.4462
29.7823
16.3421
12.1989
17.0402
26.4926
34.4654
36.2015
30.7771
21.2116
12.1665
7.16923
6.83121
9.07541
11.0461
10.9951
8.96664
6.47282
5.41725
7.46385
13.7976
25.0743
40.8121
58.6729
74.6212
84.2173
84.7724
77.4449
66.9997
59.5861
59.34
66.3769
77.051
86.3419
90.9011
90.2205
85.7765
78.9935
69.8831
57.4276
41.2887
23.5888
8.77369
1.38026
3.50353
13.1486
25.0077
33.177
34.0349
27.8026
17.9557
8.99341
4.07527
3.98003
7.22837
11.456
15.026
17.5825
19.8027
22.5974
26.2399
30.5303
35.0882
39.9751
45.8538
53.392
62.5641
72.483
81.961
90.1941
97.2032
103.478
109.163
113.227
113.798
109.465
100.436
88.9337
78.0542
69.9899
64.4114
58.997
51.2862
40.6303
28.8795
18.807
11.3876
4.49141
-5.03221
-16.7033
-21.945
-3.84427
56.4646
168.344
321.733
484.556
611.456
661.476
616.216
489.158
320.793
161.421
50.0391
0.313647
-0.312769
20.6045
37.0039
36.4554
22.4137
7.41953
2.717
11.1097
26.5112
39.3068
42.8952
37.3722
28.3685
22.6695
24.0564
31.7562
42.1489
51.8223
59.5863
66.2032
72.296
76.502
75.7194
67.3881
52.3199
35.808
25.2557
26.1859
38.7173
57.118
73.1153
80.9366
80.6614
77.6196
78.507
86.6852
100.214
113.44
121.029
121.301
116.612
110.935
106.43
102.053
94.9603
83.2475
68.0566
53.2523
42.7348
37.7629
36.183
34.1377
28.9054
21.1626
14.6458
13.8555
21.0646
34.4544
48.951
58.7659
60.3776
54.5083
45.6024
39.3032
39.2184
44.9059
52.1042
55.3656
51.2861
40.8805
28.9288
21.1009
20.2769
24.7193
29.2507
28.8479
22.1801
12.7916
7.00033
9.8239
21.4127
36.5922
47.4804
47.8214
36.5106
18.1752
1.02295
-7.13207
-2.46043
13.4303
117.002
130.523
156.861
172.428
167.733
147.426
123.314
105.562
97.4693
95.5674
93.5972
87.1111
75.59
61.9383
50.1382
42.9619
40.7517
41.901
43.7729
44.2422
42.6004
39.5118
36.2772
33.3764
29.8798
24.2378
15.8225
6.33243
-0.383507
-0.080502
9.40449
26.3949
45.8702
61.7559
69.7491
68.7519
60.6006
48.6523
36.3255
26.4523
20.9368
20.6525
25.0965
31.8796
37.5263
39.1875
36.4468
31.9774
29.8899
33.1244
41.0273
49.5589
53.7918
51.199
43.7021
36.7282
35.9114
43.5222
57.0125
70.4276
77.8452
76.6702
68.7499
59.0248
52.267
50.6979
53.2692
57.0325
59.5321
60.4908
61.8352
66.1675
74.7423
86.5254
98.6531
108.181
113.731
116.054
117.181
118.964
122.103
125.987
129.725
132.84
135.54
138.499
142.179
146.472
150.553
153.221
152.97
148.458
139.344
126.627
112.809
100.669
91.6102
84.7933
77.2788
65.9887
50.2217
32.8854
19.6164
15.8761
23.8558
40.9097
60.6957
76.3058
83.3814
81.5786
74.1985
65.9906
60.775
59.9869
62.2254
64.4795
63.6007
57.7231
47.4759
35.9119
27.3479
25.5761
31.9052
44.6614
59.949
73.6314
83.0666
87.6164
88.0235
85.1231
79.3099
70.7794
60.637
51.3413
45.8754
46.0884
51.2622
58.069
61.9874
59.7326
51.0016
38.368
25.7924
16.6202
12.1264
11.7255
13.7974
17.2043
22.0722
29.7159
41.2199
55.2825
67.0443
68.7182
53.0797
19.046
-23.3693
-52.1736
-39.7572
34.7624
172.992
350.843
524.033
644.452
679.855
627.418
513.495
379.849
264.454
186.805
144.677
122.564
104.529
83.4321
61.9304
46.6665
40.8587
40.8566
38.3972
26.2396
2.7839
-27.2629
-56.1854
-77.6666
-89.5006
-93.5753
-93.4516
-91.8598
-89.4611
-85.3573
-78.4311
-68.854
-58.6199
-50.8571
-48.4635
-52.2914
-60.2684
-67.9792
-70.4766
-64.7109
-51.1369
-33.7008
-17.331
-5.00077
3.72064
11.8834
22.1037
34.1022
44.2109
47.7937
42.9084
32.3844
22.5721
19.661
25.477
36.3513
45.6944
48.2795
43.4905
35.2921
28.9379
27.1322
28.5132
29.1298
26.1413
20.3292
15.71
16.4711
23.5838
33.819
41.7816
43.8888
40.8417
37.0067
37.148
42.5518
49.923
53.246
47.9829
34.5392
18.3878
7.15553
6.40969
16.6346
33.1192
48.3491
55.6938
52.0393
38.8367
21.2872
11.9376
31.8771
58.0045
76.5225
79.3368
67.2705
48.3167
32.2607
25.465
28.449
36.63
43.4808
43.8371
35.4957
19.2385
-2.05895
-24.3921
-43.3524
-54.8586
-56.1828
-46.9787
-29.8203
-9.47287
8.86464
21.6431
28.0114
29.6616
29.6737
30.7027
33.7394
37.9773
41.5758
42.9774
42.1828
40.8276
41.4684
46.1524
54.8296
65.0927
73.2461
76.4093
74.4162
70.1286
68.048
71.8006
82.3004
97.2319
112.627
125.112
133.617
139.388
144.961
152.566
163.035
175.728
189.148
201.719
212.169
219.815
224.557
226.49
225.36
220.153
209.001
189.952
162.118
126.931
88.3807
52.2145
23.8606
6.70303
0.776473
2.80202
7.60701
10.4677
9.1087
4.52629
0.21576
-0.748109
1.52718
2.91738
-1.5029
-11.8824
-18.8932
-4.43059
50.2657
152.088
286.416
417.774
502.446
508.043
429.651
293.268
144.238
26.5777
-35.1785
-43.2032
-19.9286
6.67186
17.129
7.10837
-15.1509
-36.6434
-47.3864
-44.2588
-30.2747
-10.8976
9.48361
29.2807
49.4358
71.6633
96.4526
121.99
144.75
161.155
169.371
170.103
165.786
158.877
150.264
139.212
124.575
106.592
87.8347
72.3998
63.9909
64.1087
71.5196
83.0312
95.0018
104.518
110.079
111.428
109.386
105.679
102.723
102.635
106.123
111.813
116.654
117.269
111.787
100.899
87.4736
74.7729
65.0635
58.8328
55.1788
52.8507
51.0878
49.715
48.4778
46.6834
43.3137
37.5763
29.4421
19.9964
11.0925
4.48983
1.13918
0.72526
1.57513
0.752583
-4.89024
-17.3598
-36.0384
-57.0842
-74.2848
-81.6296
-76.2156
-59.8537
-38.2507
-17.8746
-2.5367
7.83888
15.9936
24.1481
31.4525
34.2046
28.4458
13.0468
-9.05713
-32.6086
-53.162
-69.3212
-82.3359
-93.6631
-102.129
-103.537
-93.3653
-70.5977
-40.1218
-11.3897
5.97078
7.17395
-5.13535
-22.272
-34.154
-34.6862
-24.4299
-9.52143
2.33237
6.48553
3.75574
-0.539207
-0.296696
7.24941
19.9024
31.7955
36.8441
32.0856
19.0859
2.27376
-13.7411
-26.5329
-36.1178
-43.5735
-49.1753
-51.7345
-49.3667
-40.8889
-26.8301
-9.0723
10.0425
28.3446
44.0001
55.2031
60.1344
57.7769
49.2096
37.9084
28.8702
26.3749
31.9612
43.985
58.6565
71.768
80.3706
83.5708
82.1122
77.7459
72.255
66.4559
59.2364
47.362
27.2199
-1.09404
-29.656
-41.7585
-16.5845
9.80469
6.93127
-0.216677
-4.95091
-3.17384
4.56405
14.1786
20.831
21.6221
16.7705
9.00327
1.81194
-2.23683
-2.41579
0.168979
3.74383
6.68066
8.08636
7.62139
5.4336
2.29971
-0.128135
0.38837
6.02678
17.3875
32.5786
47.6162
58.1986
62.1623
60.8552
58.5222
59.8413
67.0319
78.3971
89.1524
94.2624
91.5871
83.3331
74.9773
72.2113
77.5832
88.724
99.3205
102.307
93.6286
74.3768
50.335
29.0098
15.9226
12.3386
15.188
19.4089
20.7236
17.5946
11.159
3.86812
-1.93035
-4.92628
-4.61804
-0.974091
5.48028
13.2679
19.9975
23.2375
22.0869
18.3107
16.1304
19.8407
31.0691
47.0427
62.0157
70.7914
72.3454
71.1089
74.4088
87.4995
109.236
131.239
141.854
132.316
102.294
60.8121
22.324
-0.184969
-1.14535
15.6456
39.6366
59.2389
67.1602
62.9284
51.9375
41.9755
39.2449
45.9525
59.6074
74.3818
83.6803
83.1116
72.5943
56.8132
43.1748
38.4012
44.842
59.1135
73.5327
80.1308
75.0354
60.2824
42.5407
29.2631
24.705
28.301
35.8266
42.3627
45.2086
44.5526
42.7648
42.5051
45.3047
51.1665
59.3608
69.3748
81.399
95.9858
113.24
131.95
149.19
160.914
163.474
155.202
137.754
115.953
96.1705
83.719
80.776
85.7411
94.3479
101.824
105.206
104.554
102.466
102.16
105.072
108.921
107.654
93.9383
63.7552
21.6794
-16.8106
-28.4663
8.56593
103.009
241.924
391.34
507.355
553.402
515.709
408.985
269.704
140.077
51.2989
13.5216
16.3785
37.9832
56.8501
60.4949
48.0806
27.4385
9.11572
1.06744
5.79164
20.3303
38.4134
53.3629
60.872
60.6589
55.8877
51.3219
50.6922
54.6789
60.7095
64.7078
63.6629
57.3435
48.3781
40.5832
36.8874
37.8869
42.1136
47.4592
52.7644
58.1529
64.4366
71.6144
78.1264
81.4319
79.4764
72.4431
63.2681
56.5656
56.3235
63.6491
75.9522
88.0329
94.6891
93.0436
83.6946
69.8844
55.7441
44.1902
36.2795
31.8006
30.4176
32.4506
38.5304
48.2838
59.1934
66.927
67.0981
57.8234
41.3923
23.7065
11.5821
9.317
16.5425
28.6537
39.4799
44.6204
43.2781
37.9525
32.5134
29.8445
30.842
34.6451
39.6704
44.3909
47.5018
47.745
44.2777
37.1667
28.3027
21.1543
19.2422
24.3458
35.0614
47.3846
56.6827
60.2246
58.6987
55.3455
-1e-006
-1.4e-005
-5.1e-005
-0.000103
-0.000138
-0.000122
-5.6e-005
6e-006
-2.8e-005
-0.000213
-0.000489
-0.000682
-0.000615
-0.000264
0.000131
0.000179
-0.000376
-0.001361
-0.002134
-0.001946
-0.000551
0.00132
0.00201
-0.000411
-0.007179
-0.014122
0.022029
0.105585
0.138209
0.025117
-0.244983
-0.513322
-0.541705
-0.145519
0.484915
0.831597
0.368281
-0.921844
-2.30906
-2.59096
-1.04923
1.67563
3.59135
2.52741
-2.0044
-7.65293
-9.87431
-4.45568
9.59354
28.4559
44.9266
52.0984
47.3066
33.8604
19.3031
10.9578
11.962
19.7284
28.1036
31.4142
27.8193
19.894
12.3871
8.72612
9.07213
10.9689
11.8911
11.5375
11.7273
14.0592
17.0328
15.457
3.76741
-18.155
-40.1401
-42.5646
-4.03577
86.5098
219.764
364.93
479.714
527.848
495.346
396.819
268.227
150.094
70.045
33.7679
27.9053
31.859
30.5003
20.5572
8.55846
3.14714
7.89548
19.0109
28.5246
30.1689
23.3827
13.2072
6.59034
7.911
16.4372
27.2491
34.5081
34.6209
28.1842
19.0808
12.1924
10.6904
14.6259
21.2277
26.7325
28.2834
25.4293
20.313
16.716
18.4806
27.8782
44.6203
65.7531
86.251
100.755
105.28
98.9673
84.3625
66.5094
50.7884
40.8043
37.1208
37.6459
39.2316
39.4345
37.282
33.219
28.3745
23.8902
20.7373
19.7239
21.3336
25.3707
30.4902
34.5241
35.3955
32.3295
26.5083
20.6089
17.5971
18.8099
23.3659
28.6581
31.9662
32.0111
29.756
27.6915
28.4674
33.4085
41.9206
51.9041
60.5568
65.3984
64.8876
58.8194
48.3294
35.7176
24.0052
16.0804
13.5054
15.8999
20.9547
25.7284
28.0184
27.6697
26.4947
26.9853
30.5981
36.5514
41.971
43.6379
40.0795
32.8678
26.3059
25.3154
32.6364
47.0359
63.5099
75.4594
77.9033
70.316
57.1872
46.1623
44.476
55.2686
75.7971
98.4683
114.266
116.89
105.86
86.5293
67.4255
56.0414
55.5781
64.0233
75.9743
85.8194
90.7298
91.1311
89.2495
86.7353
83.038
75.8509
63.1419
45.3128
25.8101
9.69783
1.15803
1.14219
6.87552
13.7141
17.7147
18.0046
17.0049
18.6071
25.5225
37.0414
49.2006
56.894
56.8397
49.6839
39.7156
32.221
30.2232
32.5409
34.2661
29.8626
16.7115
-2.96883
-23.1911
-37.4618
-42.4811
-39.6282
-33.4307
-28.4258
-26.5181
-26.6895
-27.1285
-28.169
-33.1029
-45.6481
-65.1076
25.4019
26.3672
20.4986
9.04206
-4.61046
-16.4997
-23.9413
-26.3412
-25.1708
-23.2121
-23.2514
-26.7058
-32.7354
-38.482
-40.6289
-37.2372
-29.0684
-19.2476
-11.332
-7.2716
-6.57618
-6.97028
-6.43079
-4.58988
-2.98034
-3.37116
-6.25152
-10.2112
-12.8666
-12.7775
-10.7764
-9.8413
-13.5748
-23.904
-39.576
-56.3177
-68.5084
-71.5559
-63.9742
-48.372
-30.2484
-15.555
-8.17332
-8.12486
-12.0119
-15.0066
-13.4973
-6.85196
2.60186
11.3686
16.5048
17.108
14.3036
10.3274
7.52678
7.77705
11.9527
19.7883
29.8033
39.5614
46.5454
49.3222
48.2976
45.4722
43.2004
42.6576
43.3078
43.5877
42.5649
41.1514
41.7704
46.9408
57.393
71.2464
84.4527
92.7881
93.7654
87.6652
77.1925
66.3061
58.7283
56.988
61.6638
71.4639
83.7646
95.5294
104.161
108.413
108.923
107.615
106.738
107.675
109.963
111.707
110.605
105.481
97.4146
89.4048
84.6366
84.1367
85.2309
82.6201
71.3599
50.3771
23.8348
-0.941778
-18.0726
-27.1496
-33.094
-41.1973
-49.7957
-46.0705
-9.48082
77.1506
214.28
378.322
526.567
613.685
611.991
525.005
386.28
243.811
138.569
88.0068
83.1719
99.0711
111.259
108.587
95.2774
83.2204
80.8804
86.802
91.3163
84.5735
64.8062
40.4498
24.6854
26.6774
45.5924
71.1838
90.4683
95.9409
89.5813
80.5272
78.4113
87.1283
103.068
118.314
126.352
125.713
119.89
114.202
111.963
113.109
115.438
116.949
117.474
118.127
119.776
121.777
122.302
119.855
114.767
109.282
106.019
106.155
108.675
111.35
112.492
112.152
111.872
112.738
114.117
113.49
108.692
100.256
92.1971
90.1843
97.5904
112.208
126.049
129.065
114.667
83.8235
45.2168
10.9496
-9.45608
-13.309
-4.79127
8.74307
21.2141
30.3118
37.0145
42.8017
47.2461
48.0284
42.9461
32.3478
19.8909
10.6319
8.08351
12.131
19.0989
24.1798
24.645
21.152
17.1443
16.3181
20.3434
27.9336
35.8812
41.0609
42.0146
39.256
34.3946
28.9489
23.7997
19.2871
16.0538
15.295
18.361
25.6832
36.2691
47.4403
56.1989
60.6793
61.1722
60.1834
61.0955
66.5653
77.1012
90.5498
102.98
110.164
109.299
100.426
86.7562
73.5701
66.1738
67.5993
77.1767
90.5547
101.712
105.862
101.673
91.7306
80.8095
73.0203
69.5327
68.0559
-2e-006
-2.9e-005
-8.3e-005
-0.000146
-0.000181
-0.000162
-0.000107
-8.8e-005
-0.000189
-0.000446
-0.000761
-0.00093
-0.000806
-0.000464
-0.000235
-0.000499
-0.001376
-0.002488
-0.00308
-0.002519
-0.00091
0.000598
8.7e-005
-0.004341
-0.013752
-0.019028
0.063918
0.150514
0.143024
-0.044943
-0.36497
-0.607917
-0.528991
-0.072529
0.520791
0.650735
-0.175563
-1.69929
-2.88382
-2.55984
-0.485142
2.12325
2.9599
0.27837
-5.34355
-10.456
-10.2329
-1.27728
15.8849
36.5401
54.0972
63.8198
65.2916
62.0854
59.0042
58.6019
59.7562
59.2823
55.1033
48.9168
45.987
51.9841
68.88
93.0527
116.867
132.943
138.501
136.732
134.77
139.225
152.166
170.063
185.927
193.187
189.122
176.048
160.26
148.955
147.131
155.381
169.488
181.696
183.652
169.821
140.142
100.218
59.2403
26.3781
7.09298
1.37336
4.95573
12.3898
19.9855
27.1119
34.7877
43.2105
50.0346
51.0776
42.7451
24.9338
1.72904
-20.2458
-35.459
-42.4519
-44.1181
-45.4544
-49.9733
-57.2368
-63.4021
-64.1322
-58.1837
-49.4161
-45.799
-55.3157
-80.6967
-115.304
-142.602
-140.511
-89.5707
17.3143
167.939
330.951
464.532
531.094
512.231
416.73
277.43
137.811
34.4972
-15.8623
-19.3618
2.51966
26.0354
36.3709
31.84
20.1935
11.2146
10.29
16.6124
25.4786
32.6963
37.2613
41.0643
46.8274
55.2212
64.1218
69.8831
69.7509
63.8157
55.2806
48.8723
48.5433
55.732
69.2872
86.667
105.419
124.051
141.752
157.494
169.579
176.078
176.04
170.341
161.74
153.687
148.862
147.957
149.68
151.642
151.423
147.331
138.8
126.299
110.94
94.0918
76.9685
60.3476
44.6081
30.0975
17.5518
8.27929
3.56361
3.71901
7.46592
12.376
15.8382
16.6194
15.404
14.1081
14.1023
15.1094
15.3067
12.6142
6.73916
-0.118832
-3.78441
-0.260609
11.9775
31.3318
53.4731
73.4163
87.6178
95.1894
97.8638
98.7472
100.447
103.844
107.872
110.305
109.259
104.502
97.7508
91.8044
89.0971
90.654
95.9318
103.458
111.977
120.947
130.184
138.933
145.269
146.568
141.012
129.182
114.704
102.863
98.2908
102.363
112.157
121.645
124.44
116.655
98.4388
73.5774
47.187
23.8374
6.56576
-2.6345
-2.24908
8.98421
30.9695
60.613
91.2747
114.448
123.585
117.539
101.814
86.4572
81.0207
42.9004
34.1726
46.8612
67.0779
81.3295
83.7475
77.5437
70.9897
70.6788
77.1631
85.6692
90.2395
88.793
84.4621
82.8061
87.1214
94.7888
97.9136
87.5586
59.4499
17.3617
-27.531
-61.3502
-73.3211
-60.628
-29.4628
8.09456
39.0474
54.7784
54.1219
43.4153
33.1876
33.0255
46.8307
70.7184
94.9231
108.233
103.518
81.1968
48.9385
18.0244
-2.00899
-7.34453
-0.628174
11.4537
22.0107
27.1974
27.5341
26.7648
29.4558
38.4898
53.6045
71.1474
85.1868
89.7633
80.9921
59.1086
29.3163
0.353837
-18.7111
-22.1459
-10.299
10.5394
30.7447
41.6935
39.5874
26.7434
9.95721
-3.18409
-7.73901
-3.29982
6.88577
18.3593
28.0505
35.2956
41.2723
47.4809
54.1237
59.7844
62.1185
59.2736
50.8325
38.3855
25.1256
15.1523
12.4373
19.2339
34.8115
55.0267
73.7124
85.4315
88.1883
84.1052
77.4131
70.4535
60.8118
42.9871
13.959
-19.742
-39.4161
-19.5278
59.8119
199.358
374.217
539.813
648.135
667.558
595.879
460.206
304.203
170.072
83.7243
49.4277
54.306
78.3445
103.866
120.393
124.879
118.969
106.352
91.0543
76.7477
66.2789
61.5432
62.9837
69.7904
80.1046
91.2981
100.012
102.786
97.1395
82.6638
62.1111
40.9209
25.2322
19.2421
23.933
37.1829
55.3952
75.5028
95.535
114.161
130.1
142.116
149.968
154.982
160.011
167.229
176.148
183.303
184.395
177.73
166.416
157.135
156.022
164.018
175.252
179.699
168.666
139.945
99.4166
58.2165
27.2592
12.4114
12.6223
21.6486
31.4953
36.0881
33.1461
24.1805
13.2202
4.62354
1.09093
2.86897
7.83168
12.7952
15.2693
14.7145
12.4905
10.7832
10.8739
12.3566
13.5983
13.2735
11.4646
9.66291
9.68123
12.0104
15.1856
16.6279
14.1761
7.35313
-2.11293
-11.3433
-17.5728
-19.2489
-16.2209
-9.54016
-1.2435
6.0665
9.92615
9.01303
4.217
-1.13814
-2.42481
3.83121
17.7055
35.2285
49.9021
56.2225
52.7138
42.8894
33.5974
31.2691
38.4162
52.2123
66.0109
72.8791
69.2025
56.593
40.969
29.1548
25.3392
28.9249
35.4832
39.7319
38.9334
34.4864
30.7788
32.1181
39.5483
50.1204
58.6816
61.1698
57.1958
50.3539
46.1779
48.8921
59.1532
73.8127
87.56
95.3128
94.2452
84.3743
68.3249
50.7272
36.8446
31.2016
35.9672
49.8344
67.9565
83.2881
89.4063
83.3456
66.9208
45.8879
26.8384
13.8479
6.20497
-0.473393
-10.1625
-21.4754
-24.6249
-3.64291
55.9826
157.237
284.912
407.261
486.637
495.498
429.425
309.965
175.837
65.9276
3.52817
-10.9704
4.10098
24.1007
30.8584
19.9408
-0.840673
-18.8679
-24.8306
-17.3811
-2.61603
10.2847
14.3394
7.94906
-4.90829
-17.1846
-22.7282
-19.4358
-10.3516
-2.14185
-1.64835
-12.2043
-32.1756
-56.0663
-77.4012
-91.5093
-96.7199
-93.6944
-83.8172
-68.1576
-48.2205
-26.7791
-8.19943
3.34479
6.17189
2.75936
-1.21326
0.070429
9.0456
23.6213
38.7324
49.8125
55.6453
58.5974
62.2014
68.0358
74.3291
77.0967
73.1189
62.2997
48.0406
35.3184
27.8193
26.1731
28.252
31.1945
33.3053
34.9268
37.7445
43.3135
51.7223
61.6242
71.2446
79.5127
86.6754
93.9462
102.141
110.656
117.009
117.817
110.273
93.6464
70.0414
43.9413
20.7706
5.16093
-0.39985
4.08348
16.6431
34.5611
55.1955
76.3856
96.2341
113.019
125.298
132.525
135.361
135.562
134.884
134.235
133.032
129.682
123.086
113.583
103.253
94.7815
89.8347
88.0319
87.2918
85.3364
81.2816
75.9195
70.7706
66.5793
62.7392
57.9706
52.02
46.7213
45.1232
49.307
58.1775
67.2807
71.1127
66.6021
55.4251
43.4238
37.1193
39.7149
49.1078
59.5249
65.2963
64.4156
59.2752
54.5174
53.6378
56.7923
61.4316
64.6937
65.6578
65.8085
67.355
70.8874
74.2846
73.5741
65.4141
49.3003
28.2661
7.8192
-6.2629
-10.19
-3.41133
11.2294
28.4719
42.2737
48.1725
45.485
37.8168
31.2717
30.6688
35.7359
40.3793
36.3504
20.2934
0.046645
-5.11521
27.7396
112.493
242.66
389.054
509.058
564.17
537.204
439.975
307.765
183.175
98.0331
62.2033
64.0141
80.5996
91.2091
86.4984
69.7604
51.0436
39.1372
36.434
38.9772
40.6337
37.6611
30.859
24.118
20.8781
21.4286
22.9326
21.9514
17.6477
13.1533
13.6701
22.751
39.3141
57.2554
68.4402
67.6393
55.6258
38.9129
25.9272
22.2367
27.6869
36.9667
43.2951
42.5427
35.1938
25.391
17.9428
15.4592
17.545
21.8747
26.2873
29.9034
33.0495
35.7765
37.0908
35.5025
30.2695
22.8342
16.7455
15.9062
21.9764
32.8866
43.4552
47.8215
42.6301
29.0508
12.3478
-0.564571
-4.59617
1.36166
48.8245
63.4171
78.7541
84.9121
83.0018
79.9478
81.9596
90.0367
99.9535
105.359
101.384
86.9717
65.182
41.4526
21.0935
7.40078
0.833561
-0.376399
1.26787
3.8783
6.93605
10.8545
15.8613
21.2848
25.73
28.008
28.0998
27.6109
29.1194
34.9844
45.9059
60.4652
75.5656
87.7027
94.3317
95.1666
92.4221
89.9453
91.3105
98.0339
108.63
119.137
125.482
125.88
122.107
118.571
119.464
126.1
135.821
143.47
144.255
136.638
122.819
107.236
93.8935
84.5808
78.9268
75.6685
74.3263
75.7068
80.7309
88.7189
96.8692
100.884
97.0026
84.2622
65.2342
44.9477
28.5437
18.7771
15.0499
14.2159
12.6156
8.46689
2.91113
-0.446287
2.36521
13.3988
31.5985
53.1523
73.1421
87.7962
95.8733
98.4401
97.6806
95.1924
91.4848
85.9762
78.1041
68.2533
57.8875
48.8086
42.3961
39.1465
38.833
41.1077
45.6923
52.1634
59.1754
64.3954
65.2277
60.0643
49.5016
36.4611
24.5734
16.2031
11.1105
6.82783
1.07984
-5.66631
-9.45541
-4.84065
11.5604
38.033
67.2852
89.791
98.9205
94.7095
84.0694
77.107
81.4336
97.9257
120.389
139.127
146.406
140.69
126.861
112.725
103.995
100.82
97.8803
88.1679
67.7197
38.4347
7.06671
-18.5917
-33.7475
-38.9638
-38.6887
-37.8239
-38.5226
-39.2724
-37.0382
-30.6872
-23.3243
-21.5995
-31.8641
-54.5533
-80.3272
-90.3901
-62.4887
18.8725
152.502
315.915
469.866
571.556
591.728
527.285
403.217
261.75
144.037
73.3512
48.6104
50.4478
55.1632
48.0586
28.9925
7.8425
-5.01244
-6.19584
-0.284627
5.38201
7.0484
7.11398
11.2411
22.876
39.4977
53.8244
58.8989
53.3288
42.6234
35.799
39.4543
53.7796
72.453
86.9855
92.0256
88.0921
80.7751
77.0136
81.2186
93.6156
110.986
128.923
143.962
154.381
159.686
160.128
156.512
150.248
143.375
138.154
136.248
137.785
141.194
143.837
143.367
138.93
131.651
124.128
119.011
117.162
116.983
115.138
108.565
96.7735
82.9598
72.9032
71.5917
79.649
91.7869
99.0388
93.2594
72.492
42.8386
15.4897
0.375213
-0.002675
7.66284
11.7786
3.68265
-16.135
-37.7093
-47.8359
-39.167
-15.838
7.9514
16.1474
0.505
-34.5308
-74.8114
-105.238
-118.334
-117.403
-112.348
-111.96
-118.252
-126.202
-128.681
-122.384
-80.253
-124.141
-149.059
-145.522
-118.26
-83.675
-60.4843
-59.1353
-76.6414
-99.3206
-111.257
-103.348
-77.2348
-42.5933
-10.5281
12.5074
26.5331
35.1845
41.6681
46.1075
46.3199
40.4342
28.9783
15.3145
3.81339
-2.35696
-2.49609
1.85647
7.92545
13.0507
15.2428
13.8357
9.83922
5.49975
3.19822
4.28794
8.25719
12.937
16.0884
17.2512
18.2277
21.812
29.7543
41.0658
52.6547
61.292
65.7894
67.6285
69.5001
72.8249
76.4348
77.3562
73.2449
64.5574
54.7041
48.2641
48.5388
56.0969
69.2616
85.3896
101.892
116.143
125.044
125.215
114.475
93.7444
67.7674
43.3892
26.7394
20.3725
22.7141
29.6731
37.1111
43.0946
48.0535
53.401
59.8847
66.8319
72.4973
74.997
73.0108
66.1747
55.2537
41.9737
28.7543
18.2727
12.9028
13.9508
21.4019
33.9231
48.8846
62.7327
71.4329
71.2857
60.7844
42.1708
21.5921
7.15933
5.08829
16.3204
35.4438
53.2573
61.5496
57.649
45.5378
33.165
27.6849
31.242
40.2601
48.0146
49.0823
42.8283
33.4235
26.9449
27.5553
34.8672
44.6074
51.3842
51.9914
47.1143
40.4705
36.1034
35.9383
39.1219
42.8688
44.3024
41.9201
36.3713
31.2891
33.7199
53.5309
100.514
179.016
282.175
389.619
471.778
501.137
465.157
374.27
258.986
156.929
95.9038
81.881
98.3281
117.233
114.713
82.7161
31.0498
-20.3384
-52.9626
-58.7635
-42.0583
-15.0246
9.75879
25.2362
31.5627
34.0057
38.6893
48.884
63.0469
75.8497
81.2288
75.524
59.5747
38.8871
21.2699
13.8154
20.057
38.9294
65.7335
94.4965
120.045
139.515
152.539
160.488
165.787
171.154
178.553
188.301
198.441
204.938
203.258
190.744
168.627
142.243
118.904
104.702
101.69
107.811
118.552
129.826
139.456
146.542
149.623
145.634
130.846
103.63
66.8755
27.9941
-4.01581
-22.6625
-26.9137
-20.8251
-10.7361
-1.71442
4.25301
7.80894
10.2178
12.0636
13.2538
14.094
15.8459
20.0175
26.6681
33.4229
36.455
33.2436
24.8993
16.422
13.9962
21.1889
36.016
51.7253
60.4055
57.4614
44.1475
26.6972
12.7282
7.00749
9.53976
16.5139
23.2138
26.8466
27.5124
27.1722
27.6741
29.4529
31.64
33.4033
34.8795
37.0944
40.7559
44.9604
47.3019
45.549
39.8272
33.6018
32.2398
39.692
55.3505
-4.54863
1.06118
6.69113
11.2357
14.4706
16.8148
18.4737
19.058
17.9447
15.1239
11.6979
9.37958
9.33867
11.3456
13.8294
15.1751
15.1353
15.3307
18.1479
24.6464
33.1083
39.5365
39.9664
33.1208
21.7152
11.2808
6.99651
10.8399
20.6253
31.6453
39.6412
43.0622
43.6951
44.6665
48.1034
53.5924
58.9016
61.8132
61.9866
61.4366
63.0641
68.5467
76.6707
83.8478
86.1555
81.7695
72.3484
62.3444
56.4135
56.6062
61.0063
64.7918
63.1938
54.3959
41.02
28.9358
24.0679
29.2638
42.6695
58.795
71.5017
77.1328
76.0875
72.0937
69.5195
70.6658
74.2936
76.1076
71.3601
57.6304
36.6697
14.1976
-2.41563
-7.14316
1.87676
21.3173
43.9645
62.0618
70.7657
70.1225
64.0952
56.7886
49.0219
37.1414
16.8045
-10.2265
-30.8505
-22.0462
39.0249
160.306
323.896
487.195
597.912
617.436
539.529
393.78
231.69
102.549
32.3056
16.7361
30.6483
45.7976
46.214
32.5705
15.7788
6.45126
7.41708
14.2475
20.5638
23.3286
24.1724
26.3893
31.1846
36.3199
38.1931
35.3592
30.2884
27.6246
30.8375
39.8386
51.28
61.2577
68.174
73.702
80.9801
91.3661
102.823
111.031
112.504
107.534
100.345
96.4825
99.149
106.666
113.446
113.465
104.046
87.6004
70.0652
57.3129
52.0626
53.1357
56.7857
59.3474
59.1905
56.6766
53.1127
49.675
46.786
44.4628
42.635
41.1078
39.6663
37.9904
36.1825
35.1483
35.7524
37.8505
39.5094
37.4611
29.2104
15.2248
-0.209931
-11.0893
-13.2074
-6.90764
2.99368
10.4711
12.3678
10.5604
10.273
15.6111
25.5116
33.1046
29.4363
9.15174
-25.2115
-63.5073
-92.8193
-103.631
-94.8178
-73.5346
-51.2364
-37.7759
-36.6843
-44.3208
-52.7185
-54.3046
-45.9372
-30.4133
-14.2987
-3.86035
-1.55779
-4.78556
-7.74297
-5.32291
3.57155
15.2586
23.6297
23.9865
16.0378
3.81749
-6.73129
-11.4174
-9.79056
-4.6006
0.559778
3.69763
5.40574
7.65081
11.7325
17.0435
21.472
22.9493
21.4215
19.1242
19.166
23.6064
32.0986
41.8588
49.7068
54.0916
56.0355
58.2024
62.8988
70.1395
77.373
81.2921
80.2962
76.5213
74.9927
80.9202
96.0774
116.962
135.866
144.623
138.799
119.842
93.9552
68.5865
48.9932
36.7589
30.6231
28.7689
30.1738
34.5375
41.1207
47.6718
51.2106
49.9411
5.33174
-5.75048
-20.0485
-35.2273
-49.5271
-61.7547
-70.8976
-75.8181
-75.1941
-68.4112
-56.4376
-42.2379
-29.8142
-22.4769
-21.0976
-23.5723
-26.0887
-25.2836
-20.1609
-12.405
-5.14737
-0.722819
0.690708
0.900633
2.00875
4.85675
8.36025
10.5367
10.2812
8.36156
7.04281
8.37659
12.798
18.8973
24.4854
28.2626
30.6294
33.0444
36.5331
40.528
43.063
42.1049
37.1277
29.7224
22.761
18.8647
18.8895
21.6618
25.0235
27.3162
28.3898
29.4137
31.7462
35.9389
40.8978
44.489
44.8364
41.3411
35.2221
28.9811
25.2351
25.5413
29.88
36.7177
43.6952
48.5725
49.9566
47.779
43.2674
38.8214
37.0651
40.0163
48.0581
59.6571
71.8336
81.3863
86.1995
86.159
82.9402
78.7061
74.7148
70.4218
64.191
54.7529
42.6216
30.4368
21.7842
18.9975
21.3258
24.9406
25.0777
18.7952
6.82948
-6.79299
-16.9274
-20.4344
-17.9749
-13.9072
-14.0879
-22.8395
-40.0833
-59.5935
-69.1392
-52.7776
3.72429
105.886
244.272
392.881
514.793
574.928
554.395
459.773
321.663
182.207
77.4085
23.3123
12.8623
24.2767
35.2318
34.516
24.6488
16.0824
17.3681
28.5844
41.9416
47.8647
41.8763
27.6835
14.2748
9.75215
16.3971
29.7507
42.3412
48.7009
48.3331
45.1723
44.0464
47.1107
52.8213
57.4934
58.4919
56.0828
53.1844
53.1694
57.5991
65.4271
74.2101
81.9534
88.2935
94.1459
100.207
106.03
110.084
111.067
109.228
106.607
105.639
107.318
110.087
110.612
105.818
94.9583
80.3343
66.0163
55.5315
50.0214
47.8995
46.083
42.0326
35.2236
27.0863
19.9384
15.5184
13.8857
13.7565
13.3534
11.3728
7.78861
3.8248
1.3572
2.13099
6.82867
14.5998
23.3276
30.5412
34.532
35.0736
33.2098
30.5045
27.9688
25.8204
23.8878
22.5608
23.1558
27.1405
34.6969
43.992
51.5945
54.4317
52.0553
47.297
44.9826
48.9546
59.4745
72.6679
82.691
85.2386
80.0225
70.9138
63.3646
61.0499
63.7746
68.0472
69.7198
66.8503
60.9293
55.6667
54.4499
58.2453
65.3552
72.7089
77.5743
78.8252
76.2567
69.9148
59.6986
46.0214
30.8688
17.9574
11.3464
13.4386
23.4744
37.5922
50.9174
60.113
64.8036
67.1049
69.9015
75.3002
84.0048
95.5474
108.869
122.686
135.47
145.661
152.198
155.384
156.824
158.312
160.13
-1e-006
-1.1e-005
-2.7e-005
-4.2e-005
-5.1e-005
-4.5e-005
-2.7e-005
-2e-005
-5.1e-005
-0.000121
-0.000203
-0.000252
-0.000227
-0.000149
-9.7e-005
-0.000165
-0.000386
-0.000667
-0.000822
-0.000698
-0.000327
-1e-005
-0.000243
-0.001555
-0.00431
-0.004852
0.029016
0.040931
0.024305
-0.020391
-0.108094
-0.179273
-0.151724
-0.005164
0.150129
0.162951
-0.03228
-0.425422
-0.729204
-0.671458
-0.179026
0.456841
0.654803
-0.012732
-1.40094
-2.63367
-2.48865
-0.10218
4.53378
10.389
15.7988
19.2735
20.0014
17.9788
13.927
9.19687
5.52868
4.76799
8.24847
15.9704
26.1748
35.8611
42.1302
43.8214
42.1968
40.1218
40.2599
43.5287
48.9207
54.5918
59.421
63.6931
68.1405
72.6202
75.3895
74.027
67.5824
57.8271
48.9595
44.9789
46.7222
51.0329
52.5137
47.0638
34.8931
20.9388
11.918
12.3895
22.1501
36.4311
48.8564
54.8642
53.6235
47.6635
40.8034
36.0853
34.7991
36.7834
41.2897
47.3575
53.5664
58.1428
59.317
56.4654
50.9687
46.1564
45.6291
50.8745
59.9499
68.0541
70.1688
63.9845
51.4737
38.1086
29.8897
29.9586
37.0849
46.4847
52.5386
51.639
43.9523
33.0577
23.8057
20.0726
22.941
30.2285
37.7536
41.2608
38.5777
30.7998
21.8538
16.5343
17.8874
25.204
34.3686
40.2738
39.6638
33.3762
25.8599
22.3224
25.4991
33.9605
43.077
47.8446
45.6827
37.5266
26.7045
16.652
9.15416
4.1752
0.85252
-1.02857
-0.662569
3.07952
10.3847
19.6916
28.1629
32.8907
32.5079
28.0647
22.7115
20.1377
22.7711
30.5967
41.0356
49.9933
54.0006
51.8687
45.2502
37.5348
31.9562
29.6182
28.9028
26.772
20.9491
11.6324
1.73223
-4.99665
-6.32988
-2.73
3.15764
8.27279
10.794
10.0532
5.45841
-4.32204
-19.9836
-37.9063
-46.906
-29.3263
32.2565
144.432
294.169
448.198
563.072
602.53
553.67
433.475
281.693
143.565
51.1993
12.9901
15.2144
33.337
45.9995
44.0283
31.0087
16.9896
10.3715
12.9953
20.2517
25.257
23.657
16.2086
7.92323
4.64574
9.54151
21.171
34.3634
43.22
44.5979
40.011
34.7023
34.6401
42.8568
57.6254
73.341
83.5983
84.7275
77.8043
67.6681
60.0968
58.7468
63.5608
71.4032
78.2784
81.6923
81.8059
80.8538
81.3914
84.5881
89.3816
93.0877
92.9858
87.9221
79.0227
69.0382
60.8216
55.736
52.7462
49.1618
42.3715
31.6334
18.7928
7.3669
0.564922
-0.417099
3.12996
8.36721
12.6836
14.9127
15.2764
14.5156
13.046
11.0606
9.10807
8.6365
11.5189
18.6054
28.3028
36.7599
39.8261
35.6093
26.041
16.0834
11.0361
13.3622
21.3647
30.5473
36.5296
37.4888
34.8458
31.7495
30.6677
32.1063
34.977
38.0865
41.1082
44.4482
48.0796
50.6736
49.9217
44.2921
34.558
23.8963
16.4265
14.9699
19.4134
27.0825
34.4454
39.1204
40.8988
41.0688
41.055
41.2884
41.0504
39.1873
35.199
29.4759
23.2366
18.0335
15.207
15.563
19.1817
25.389
32.5838
38.5994
41.517
40.619
36.8344
32.3745
29.5395
29.3604
30.9852
32.4196
32.052
30.0305
28.2923
29.5661
35.4702
45.1786
55.6764
63.3562
65.8694
63.3409
57.8978
52.2433
48.0485
45.4645
43.5756
41.5251
39.2167
37.2419
36.1791
35.862
35.4394
34.2544
32.5654
31.6368
32.8816
36.3946
39.9876
39.4464
30.9019
14.1008
-4.45263
-11.0852
11.5234
76.8322
186.206
323.608
457.501
550.67
574.587
521.888
410.168
275.106
155.568
78.0629
48.2943
52.8712
69.3769
78.4683
71.7821
52.8532
32.0652
19.6494
20.5173
32.9574
50.432
64.9447
70.2611
64.0814
48.5768
29.2603
12.7272
3.88204
4.06179
10.8343
19.6702
26.4302
29.2198
28.6049
26.6535
25.5547
26.7219
30.7916
37.914
47.5573
58.0804
66.8841
71.3745
70.3528
65.3205
60.1593
59.1236
64.3885
74.4691
84.7677
90.2305
88.116
79.4894
68.4617
59.8463
56.6644
58.9403
64.2645
69.3917
71.8353
70.5027
65.4242
57.3661
47.724
38.5546
32.5336
32.0604
37.8086
47.6644
57.0923
61.0704
56.959
46.3932
34.9587
29.2326
33.0398
45.1684
59.757
69.7192
70.6257
62.9511
51.3586
41.5383
36.8791
37.0329
38.9313
39.1546
36.2271
31.3803
27.3984
26.7382
30.2823
37.1495
45.2019
51.9776
55.7117
55.7317
52.6947
48.5297
45.7579
46.4695
51.207
58.5553
65.4851
68.7885
66.6275
59.2906
48.9436
38.4062
30.0208
24.9443
23.1496
23.8522
26.0085
28.6098
31.0899
33.4629
36.2242
39.9792
44.6157
49.003
51.4722
51.003
48.5595
47.0066
49.4178
56.3159
63.8614
64.7197
51.7336
22.3598
-18.5029
-59.7079
-88.5689
-96.613
-83.303
-55.9419
-25.4835
-1.28409
12.3325
16.6227
80.7204
74.2039
61.3392
43.1616
23.9158
8.754
0.859766
0.025942
3.40074
7.45721
9.82015
9.81625
7.87925
4.84713
1.68827
-0.320069
0.176606
3.97294
10.3806
17.0934
21.2948
21.4085
18.4966
15.7305
16.2858
20.9184
27.2709
31.2953
30.0449
23.7209
15.7279
10.5535
11.0756
17.1772
26.2822
35.3943
42.6953
47.9194
51.6904
54.4531
56.2662
57.2714
58.2012
60.0653
63.1212
66.1655
66.7855
62.64
53.2861
41.081
30.2599
24.7923
26.2523
32.9825
40.9561
45.8281
45.1939
39.5683
31.9332
26.1791
25.3501
30.3022
39.3705
49.0132
55.2908
55.4986
49.3888
39.357
29.3985
23.3372
23.0911
27.7487
34.1095
38.2381
37.5029
31.854
23.8604
17.2829
15.178
18.3679
25.0917
31.9393
35.6335
34.5741
29.4148
22.5332
16.5593
13.1279
12.6615
14.5836
18.3443
23.9355
31.7214
41.5859
52.2975
61.6054
67.1084
67.3595
62.5717
54.4985
45.2184
36.1647
27.8871
20.5911
14.9383
12.0741
13.0808
17.8844
24.5989
29.9879
31.1218
27.2005
20.1384
13.5259
10.2669
10.3409
10.3236
5.36765
-6.9147
-22.3507
-28.4309
-7.12573
57.8072
171.339
320.385
473.95
591.961
640.11
604.152
496.666
352.098
212.567
111.003
60.1006
51.5868
64.9839
79.5947
83.5963
76.1802
63.243
51.1203
42.503
36.0913
29.185
20.6621
11.9635
5.97353
4.90924
8.89215
16.0619
23.8446
30.4703
35.8382
41.0635
47.2232
54.1614
60.1747
63.0539
61.664
57.1061
52.3651
50.8934
54.3322
61.3445
68.4239
71.9795
70.6661
66.4017
63.2725
65.036
72.7813
84.212
94.9554
100.974
100.549
95.0103
87.5019
80.9736
76.6543
73.6177
69.8258
63.7215
55.2843
46.0977
38.0857
32.4367
29.0421
26.9385
25.1688
23.524
22.4375
22.6776
24.671
28.3084
33.2774
38.9968
44.5254
48.3318
48.7215
45.3429
40.3922
38.3337
43.3836
55.7372
69.216
72.7978
55.9506
15.2996
-41.5315
-97.9619
-135.846
-143.911
-122.614
-82.8716
-39.6305
-4.61821
17.5995
28.9617
34.1903
37.1686
39.345
40.5859
40.6002
39.857
39.006
38.4382
38.1019
38.1113
39.2977
42.5337
47.8355
53.5137
56.7815
55.5884
50.1195
43.1166
38.4873
38.8996
43.9449
50.3146
53.7178
51.4679
43.8312
33.547
24.1934
18.2033
16.1335
17.1048
19.5994
22.5513
-1.1e-005
-0.000154
-0.000493
-0.000973
-0.001377
-0.00142
-0.001013
-0.000501
-0.000579
-0.001811
-0.004016
-0.006035
-0.006337
-0.004274
-0.001089
0.000366
-0.002503
-0.00954
-0.016728
-0.017964
-0.0095
0.005295
0.014148
-0.000932
-0.05648
-0.113132
0.286211
0.898238
1.16849
0.388716
-1.73328
-4.27023
-5.22275
-3.01666
1.72236
5.52619
3.90761
-4.81684
-16.5174
-22.394
-14.9728
4.53232
23.3455
23.5329
-4.48607
-49.6413
-78.8624
-51.662
55.8074
231.152
424.13
567.194
607.955
535.465
385.004
218.626
93.3906
35.843
36.0172
61.5618
80.6737
79.0458
62.209
45.165
39.0585
44.0444
51.7971
53.5841
47.1134
37.516
32.5676
36.7066
48.0129
59.8506
65.3028
61.2627
50.382
38.4786
31.6778
33.5452
43.7876
59.1493
75.2067
88.0946
95.5735
97.4916
95.3823
91.636
88.6031
87.8488
89.6152
92.8407
95.6324
96.187
93.769
88.9129
83.1808
78.1738
74.603
72.0027
69.1769
65.1076
59.6869
53.7251
48.5612
45.2272
43.762
43.3242
42.503
39.8703
34.5024
26.517
17.3563
9.5297
5.91214
8.41008
16.974
29.07
40.5898
47.6385
48.1932
42.8678
34.5643
27.0441
23.2776
24.3619
29.4018
36.1712
41.8558
43.9643
41.0724
33.4694
23.6013
15.4461
12.9076
17.8848
28.875
41.1789
49.0793
48.8773
41.0232
30.0211
22.2054
22.3625
31.2243
45.2884
58.6558
66.0092
64.889
56.3
43.9446
32.3173
25.0995
24.1488
29.3385
38.8149
49.2299
56.6834
57.9723
52.1557
41.1645
29.4241
21.7017
20.6936
25.6432
32.7233
37.5676
37.5787
33.3577
27.6771
23.2849
20.8499
18.8854
15.4668
10.4433
6.21551
6.44998
13.4526
26.0178
39.7172
49.4118
52.3268
49.8975
46.4609
46.1613
49.9691
54.926
56.2974
50.9846
39.7895
27.2807
18.9688
17.9778
23.1516
29.8794
33.0151
29.8308
21.5661
12.4561
6.84018
6.66438
10.3256
13.894
13.8647
9.37793
2.86648
-1.31778
0.298112
8.10706
19.0909
28.0119
29.7887
21.5167
3.87569
-17.909
-33.7536
-29.5199
9.46187
92.1978
214.675
355.905
481.191
553.332
547.941
465.345
331.994
189.797
78.2114
18.2779
6.74127
22.5787
40.6218
44.6381
32.825
14.2748
0.441481
-2.25625
5.23745
17.2038
27.7232
33.8992
36.1246
36.3537
36.1883
36.3786
37.2287
38.9981
41.9755
46.2601
51.0867
55.1721
57.3208
57.2407
56.1076
56.0552
59.254
66.9342
78.4968
91.6129
102.973
109.772
110.709
106.646
100.05
93.8331
90.157
89.508
90.7991
92.1182
91.593
88.3615
82.7894
76.1195
69.8479
64.9458
61.6058
59.4341
57.8672
56.5611
55.245
53.7113
51.3421
47.1416
40.3514
31.2417
21.4652
13.714
10.5573
12.8517
18.946
24.9325
26.5403
21.2918
10.0942
-2.87536
-12.1296
-13.6537
-7.24239
3.61459
13.5219
18.2357
16.8639
12.2026
8.75141
9.70481
15.1712
22.1778
26.7591
26.7078
22.8417
18.5987
17.7114
22.072
30.5279
39.5292
44.8959
43.7638
35.7379
23.1158
9.91247
0.723363
-1.03117
5.53203
18.2668
32.6336
43.6017
47.8171
45.0084
37.656
29.5189
23.7066
21.5056
22.3086
24.6218
27.1161
29.0907
30.2941
30.8536
31.0397
31.3284
32.2525
34.1841
36.9467
39.6972
41.414
41.3421
39.4156
36.0627
32.0208
28.0719
24.9505
23.1762
23.1104
24.5073
26.2845
27.0202
25.801
23.0178
20.4383
20.0949
22.7037
26.9987
30.4077
30.9244
28.7678
26.2503
26.2886
30.0627
35.9654
40.3757
40.1162
34.5598
25.9235
17.7897
12.7575
11.2418
11.7869
12.4991
12.3271
11.7342
12.141
14.8754
20.0407
25.9306
29.1293
25.9461
15.3016
2.49065
1.02003
30.0525
106.299
233.154
392.83
547.667
652.318
672.568
601.259
462.559
301.755
165.519
82.8956
56.3724
66.8309
87.536
98.4082
93.4096
78.4982
63.7713
55.8937
55.1391
57.2206
57.7432
55.1529
50.8923
47.3459
45.6994
45.4495
45.2035
44.0713
42.074
39.709
37.3521
35.0158
33.148
33.1324
37.0973
46.8267
61.8997
79.0146
92.9813
99.2836
96.6196
87.7891
78.2141
72.8652
73.4843
78.0786
82.5876
83.7973
81.357
77.6543
75.7108
76.816
79.6344
81.0973
78.7424
72.2514
63.5059
55.1993
49.0288
44.9222
41.6291
38.2013
35.3082
34.7762
38.1286
44.9355
52.3556
56.4006
54.3366
46.3891
35.8163
27.1637
23.8138
26.1612
31.9063
37.6923
40.9836
41.1294
39.0704
36.4585
34.5848
34.04
34.9364
37.2269
40.4991
44.0046
46.7055
47.7027
46.671
44.2279
41.3555
38.6891
35.8865
31.9495
25.9323
17.9812
9.35121
1.76055
-3.58224
-6.46932
-7.4944
-7.27567
-5.82092
-2.54414
3.08146
10.7926
19.5403
28.1419
35.8748
37.7418
50.9032
63.6218
61.5952
45.2544
24.6572
10.4003
6.7682
10.6616
15.4683
16.22
12.652
8.45946
8.27713
14.566
26.0821
38.8242
48.2062
51.4318
48.6441
42.5011
36.5474
33.2679
32.9539
34.07
34.5432
33.5011
32.062
32.5869
37.073
45.4661
55.4314
63.4738
66.9909
65.7599
61.7002
57.5026
54.847
53.4485
51.6188
47.8517
42.0947
35.848
30.794
27.7033
25.7778
23.4648
19.8045
15.3334
11.7941
10.5043
11.2709
12.5357
12.6926
11.5165
10.6266
12.3953
17.9358
25.6373
31.9252
33.5129
29.9836
24.5119
22.1327
26.5272
37.2099
49.3907
56.2128
52.7832
39.0153
19.6912
2.23601
-6.95108
-5.12742
6.3365
23.5496
42.2317
58.9712
71.4681
78.0604
77.6029
70.2623
58.387
46.6608
40.471
42.8075
51.8939
61.0714
61.7322
47.8767
20.0089
-14.2095
-43.2954
-57.3866
-52.7599
-33.3714
-8.27683
12.8417
23.9545
24.7875
19.5333
14.194
13.6647
19.8014
31.2568
44.4782
55.5683
61.8411
62.6193
59.1164
53.5333
47.8826
43.3026
40.129
38.4061
38.3165
40.1643
43.2372
45.5259
44.3697
37.9262
26.9651
15.303
8.10103
9.06568
18.1617
31.5959
43.9014
50.9557
52.0026
49.1687
45.4245
42.5719
40.6149
38.7658
37.0226
36.6633
39.4849
46.2304
55.5864
64.5791
70.0967
70.4195
65.9942
59.0226
52.0521
47.099
45.2188
46.2976
49.4195
53.231
56.3387
57.753
56.8677
53.314
46.1936
34.205
17.1323
-1.24226
-10.9138
3.82072
58.9501
161.699
302.504
453.089
573.825
628.545
599.943
497.919
356.23
218.189
118.922
72.7605
71.177
91.4734
109.814
112.148
97.712
75.1381
55.2954
45.2258
46.1445
54.9152
66.8396
77.6238
84.4684
86.2239
83.8811
80.5675
80.4844
86.6994
98.6495
111.093
116.084
107.113
82.9355
48.9408
15.1676
-8.47262
-16.6763
-10.2261
5.37993
23.4517
39.174
50.8264
58.8175
64.1766
67.5634
69.2142
69.4677
69.0912
68.8544
68.6453
67.3299
63.5651
56.9339
48.613
40.8839
35.7811
33.8887
33.8002
33.1715
30.1861
24.8024
19.0333
15.7148
16.9612
22.8924
31.6532
40.3229
46.1836
47.6421
44.3286
36.8064
26.1906
14.3132
3.89461
-1.75549
-0.029968
9.32704
23.3544
36.772
44.2003
43.0153
34.69
23.9679
16.2336
14.8616
19.8958
28.7366
-1e-006
-9e-006
-2.7e-005
-6.1e-005
-0.000103
-0.000132
-0.000134
-0.000124
-0.00015
-0.000251
-0.000413
-0.000565
-0.000612
-0.00053
-0.000423
-0.000472
-0.000804
-0.001337
-0.001762
-0.001742
-0.001188
-0.000455
-0.000293
-0.001573
-0.005011
-0.008445
0.012524
0.040583
0.081339
0.078927
-0.041811
-0.227282
-0.355076
-0.276721
-0.024541
0.149256
-0.013892
-0.614582
-1.33413
-1.59307
-1.01943
0.136433
0.904883
0.255257
-1.95981
-4.56859
-5.51856
-3.01168
3.37426
12.5627
22.8426
33.3122
44.2269
56.1523
68.4406
78.1832
81.0744
73.9252
57.206
35.9967
17.944
9.57396
13.0128
25.0865
39.3151
49.5255
52.8697
50.5102
46.0159
42.8862
43.01
46.7122
53.6657
63.4615
75.0255
85.1
87.9257
77.2557
50.9917
15.807
-11.3494
-7.36813
47.1572
156.591
303.492
451.24
556.542
586.724
533.488
416.449
274.298
148.278
66.0545
33.4882
37.458
56.0409
70.3163
71.442
60.9998
46.1326
33.602
26.4437
23.7868
23.254
23.2581
23.5954
24.5794
26.0449
26.8004
25.4715
21.657
16.579
12.622
11.9726
15.0376
19.9617
23.6806
23.6872
19.575
13.4568
9.10815
10.182
18.7774
34.8041
56.2948
80.0062
102.019
118.554
126.956
126.684
119.811
110.579
103.608
101.537
103.572
105.881
103.869
95.217
81.3506
67.0308
57.6303
56.1088
61.3991
68.9326
73.4655
71.8511
64.7076
55.5401
48.6412
46.4683
48.4523
51.4714
51.7897
47.2938
38.6336
28.6683
20.7756
17.1266
17.7596
20.8493
24.1882
26.6922
28.8945
32.3963
38.515
46.8407
54.8925
58.9595
55.7628
44.4133
27.2857
9.42689
-3.25231
-6.4984
0.278369
13.9664
28.8437
39.276
42.2498
38.4001
31.2857
25.2015
22.9614
24.7971
28.8808
32.8374
35.2664
36.0204
35.4858
33.6666
29.8348
23.2309
14.2129
4.74367
-2.0897
-3.67017
0.68118
9.13174
18.3601
25.2555
28.414
28.4162
27.0693
26.0317
25.9476
26.2803
26.0447
24.3998
21.2169
17.1791
13.5709
12.2284
14.8679
22.0916
32.8856
44.3084
52.4874
54.496
50.0013
41.9151
34.9303
33.2014
38.2952
48.7428
60.9799
71.4912
78.0785
80.0183
77.4667
70.6319
60.1008
47.4637
35.7356
28.5405
28.4297
35.2066
45.7114
55.2518
60.0307
58.9827
54.1698
49.4875
48.5121
52.574
59.6729
64.6338
60.851
43.6794
14.6322
-15.3581
31.3095
30.0144
28.8974
28.2295
26.8858
23.506
17.9355
11.8549
7.93222
8.08225
11.9348
16.825
19.2408
16.9852
10.4453
2.33889
-3.75615
-5.43232
-2.49065
3.30374
9.39584
13.7122
15.2156
13.8151
9.72278
3.32345
-4.51659
-12.1837
-17.2482
-17.3329
-11.5256
-1.44398
8.87777
14.7255
13.1328
4.67661
-6.54286
-14.8456
-15.9965
-9.24626
2.34335
13.8425
21.0126
22.1792
18.3439
11.9865
5.55907
0.669126
-1.85434
-1.388
2.79643
10.8421
21.7586
33.027
41.3581
44.1702
40.6648
32.3272
22.3349
14.2295
10.6122
12.6711
20.0407
31.1374
43.3613
53.8493
60.3528
62.2028
60.8113
59.0855
59.8772
63.88
68.8619
70.6903
65.7481
53.5197
37.3756
22.8682
14.5584
13.3141
15.8629
17.0734
13.6804
6.738
1.22208
2.80784
13.4856
29.1787
40.8759
39.437
22.2099
-2.49543
-16.0207
4.33441
74.7978
195.25
344.931
486.998
581.074
598.762
535.448
412.232
267.393
140.738
58.7109
26.6695
31.0895
49.6118
62.9162
62.3055
50.2963
35.7401
27.0091
27.5792
35.3985
45.7708
54.5725
60.0252
62.4179
62.6998
61.6079
59.4578
56.9261
55.1808
55.3602
57.731
61.2213
63.9527
64.5971
63.4955
62.3505
62.7987
65.2634
68.5419
71.0286
72.2625
73.4212
76.4738
82.5085
90.6051
98.6786
105.14
109.929
114.298
118.833
121.995
120.633
112.503
98.9123
84.8928
76.5812
77.011
83.493
88.8814
86.1147
72.7281
52.5371
33.0897
20.8567
17.6532
20.343
23.8149
24.5916
22.6748
20.3093
19.475
20.2292
20.9734
20.2884
18.4089
17.0972
18.036
21.3562
25.341
27.7695
27.8751
27.1887
28.4094
33.4638
41.8837
50.8934
57.0024
58.3316
55.5751
51.6612
49.9201
52.2365
58.032
64.9476
70.2452
72.391
71.4818
68.7466
65.5271
62.323
58.9748
55.3524
52.0322
50.1788
50.6024
52.7841
54.5752
53.2606
47.2581
37.4242
26.7567
18.6165
14.6637
13.8706
13.6198
11.8348
8.63972
6.03877
6.08922
8.71639
11.2349
10.1692
4.09497
-4.60008
-10.8031
-10.0264
-1.75555
9.94103
18.6398
19.6181
12.7825
2.6121
-5.01775
-6.43402
-2.15963
4.29907
9.39849
12.092
13.9115
17.2428
23.0605
29.8974
34.9031
35.9568
33.0165
27.9217
22.7029
18.286
14.3241
10.0022
5.1274
0.458004
-2.97837
-5.08302
-6.96829
-0
-5e-006
-1.3e-005
-2.8e-005
-4.8e-005
-6.9e-005
-7.6e-005
-6.1e-005
-3.9e-005
-3.9e-005
-8.9e-005
-0.000189
-0.000294
-0.000328
-0.000246
-9.4e-005
-2e-006
-0.000116
-0.000447
-0.000811
-0.000908
-0.000548
8.5e-005
0.000337
-0.000752
-0.002344
0.00996
0.013607
0.028036
0.037103
0.013553
-0.077929
-0.196914
-0.255249
-0.18065
0.024183
0.223558
0.204408
-0.161292
-0.733662
-1.09423
-0.847079
0.07298
1.04898
1.17415
-0.090079
-2.225
-3.52764
-1.87786
3.9866
13.3433
23.3744
30.447
31.8385
27.0845
18.1894
8.46556
0.820553
-3.30707
-4.09764
-2.63548
0.07158
3.52856
7.52374
11.5582
14.6654
15.8979
14.8151
12.0419
9.13634
7.83185
9.20601
12.9637
17.6607
21.2567
22.0497
19.5813
14.8958
10.2509
8.15719
10.1435
15.8393
23.3194
30.2893
35.7726
40.7565
47.0201
54.4519
58.9655
53.5802
33.1973
1.17965
-26.8292
-26.204
25.9193
136.867
289.345
443.588
551.664
577.885
514.812
386.306
236.409
109.602
32.9648
8.76231
19.4618
40.5647
53.6599
52.8239
42.8041
32.5515
28.6036
32.0039
39.2344
45.6448
48.3376
47.0302
43.2821
38.9482
35.0318
31.3783
27.0155
21.0055
13.147
4.34999
-3.48334
-7.98013
-7.39345
-1.44369
8.49542
19.7343
29.1781
34.492
35.1028
32.4519
29.544
29.617
34.507
43.6915
54.3991
63.0477
67.1026
66.3754
62.808
58.9714
56.3863
54.7385
52.5709
48.8447
44.1033
40.1396
38.5662
39.3646
40.6736
39.927
35.8019
29.2456
23.0815
20.1814
21.4093
25.239
28.8777
30.2864
29.4375
28.207
28.7157
31.6773
35.9491
39.54
41.1488
40.9138
40.0765
39.5877
39.1439
37.4065
33.1903
26.9474
20.9857
18.3828
21.2616
29.4512
40.5188
51.0537
58.4317
61.8237
62.133
60.8642
59.0696
56.779
53.2828
47.9893
40.9477
32.9259
25.0482
18.4344
14.0498
12.7518
15.2258
21.5409
30.5425
39.7181
45.6561
45.4048
37.9404
25.0355
11.0574
1.12567
-1.19046
4.19927
13.4632
20.4646
19.8428
10.0254
-5.57318
-20.1261
-26.6033
-21.6577
-7.36938
10.1544
23.9454
29.7723
27.709
21.1837
14.2625
9.28801
6.04496
3.18389
0.356031
-0.755458
2.68689
12.3531
27.0978
43.1768
56.5617
65.9084
73.636
83.8837
99.0303
116.405
128.477
127.041
108.638
78.0284
46.7846
27.6604
27.8364
45.0848
69.7374
90.9439
58.703
73.9504
87.5161
96.8866
100.995
100.634
97.9389
95.0829
93.484
93.6816
95.7287
99.5055
104.747
110.699
116.17
120.031
121.781
121.827
121.057
119.879
117.943
114.519
109.687
104.9
102.428
103.821
108.274
112.459
112.089
104.424
89.9349
72.0609
55.2896
42.6624
34.5679
29.5137
25.7281
22.5821
20.4827
19.7671
19.7771
19.0849
16.598
12.8854
9.97588
9.8123
12.3519
15.2624
15.4391
11.5946
5.82585
2.60142
5.67929
15.3061
27.6335
37.2287
40.8472
39.6076
38.0809
40.948
49.4996
60.7193
69.5026
72.0956
68.4776
61.8196
55.7994
51.97
49.0763
44.6076
37.3131
28.2158
19.6047
12.7293
6.5275
-1.46853
-13.044
-26.9637
-38.7401
-42.9523
-36.667
-21.5949
-3.82207
8.92398
10.9869
2.0033
-11.393
-16.1586
4.03088
63.0784
165.672
301.491
444.264
558.041
609.631
582.44
484.97
348.857
215.982
120.77
76.6455
73.194
85.3796
88.6443
71.5836
39.5024
8.11298
-7.83967
-3.45274
15.0101
35.5408
48.5408
52.0116
50.8657
52.1325
59.383
70.6419
80.8148
86.1695
87.5807
90.2428
99.7633
117.444
138.152
152.394
151.401
132.299
100.217
66.4738
43.4742
39.0601
53.4235
79.6382
107.529
128.421
138.314
138.769
134.827
131.688
131.831
134.177
135.196
131.323
121.194
106.372
90.2023
75.7452
64.0561
53.9211
43.2192
31.0851
19.1393
10.9935
9.91715
16.4169
27.1671
36.4682
39.0893
33.1437
21.2736
9.01546
1.5885
1.16331
5.83025
11.3024
13.6039
11.4203
6.51944
2.14173
0.874943
3.17332
7.34032
10.8463
11.891
10.3674
7.62171
5.71072
6.19432
9.6339
15.2974
21.4573
25.9959
27.4144
25.7424
22.7928
21.1922
23.1839
29.1875
37.4076
44.962
49.6436
51.3354
51.8976
53.5132
56.9089
60.567
61.8071
58.94
52.8551
46.8394
44.5
47.3357
53.4737
58.6167
58.6483
51.9401
40.4369
28.3592
19.7743
16.75
18.544
22.2682
24.8059
24.1823
20.1823
14.1887
8.30538
4.40791
3.27287
4.59338
7.25774
9.92119
11.8161
13.129
14.9623
18.7649
25.347
34.0632
42.7739
48.7253
49.7532
45.6069
38.4425
31.9411
29.6875
33.1576
40.8667
49.0875
53.9141
53.3419
48.3403
42.3911
39.4447
41.3967
46.9087
51.6014
49.8387
37.3913
14.3405
-12.8372
22.6999
11.8751
5.60912
5.66203
9.22316
12.1453
12.1743
9.92173
7.45605
6.28465
6.3778
6.86747
7.24604
7.95682
10.169
14.4402
19.8123
24.1828
25.1883
21.6149
14.2307
5.4659
-1.66431
-4.81192
-3.18359
2.39251
9.92709
17.2095
22.7529
26.3414
29.3217
33.9952
42.3919
54.8957
69.315
81.3743
86.4361
82.0286
69.5479
54.0033
41.7633
37.256
40.5384
47.3068
51.2172
47.723
36.5398
21.6627
8.74556
1.75433
0.614701
1.9036
1.8018
-0.997914
-4.24356
-3.81467
2.77623
14.1605
25.6232
32.1151
31.6349
26.8203
23.0633
24.7794
32.8672
44.5133
55.9448
65.9894
77.2691
93.9551
118.099
146.907
173.051
188.844
190.915
182.602
172.206
168.149
174.322
188.371
203.697
213.84
215.749
210.581
201.712
191.979
182.119
171.437
159.821
148.887
142.268
143.78
154.987
173.322
191.815
200.575
190.146
155.975
102.334
43.6408
0.758933
-7.00139
28.6139
98.3442
177.244
234.938
249.624
218.814
160.521
103.551
72.4403
75.7231
103.838
136.965
157.62
159.801
149.997
140.75
142.09
155.87
176.198
194.129
202.138
196.943
179.424
153.268
123.894
97.4288
79.3382
72.4568
75.3057
82.2402
85.504
79.1759
61.7679
36.5579
9.91703
-11.6298
-23.1535
-21.9526
-7.11061
20.2629
56.1756
93.7048
124.939
144.264
150.645
147.336
138.502
125.295
104.857
74.6675
39.4357
14.9671
24.8324
88.8024
209.528
365.422
516.115
618.545
645.475
596.303
494.559
374.562
265.828
183.896
130.99
102.556
93.5253
99.3739
113.208
124.161
120.613
97.5188
62.4379
34.1783
32.269
63.8326
116.467
162.785
175.901
145.993
87.4912
32.03
11.0274
38.2456
102.86
176.012
226.804
237.662
211.33
166.81
127.958
111.535
120.594
145.551
170.678
182.455
176.139
157.271
137.687
128.642
134.497
150.453
166.018
171.782
165.767
154.741
149.855
158.632
179.267
201.263
211.444
201.885
173.992
136.4
99.0325
67.982
44.7098
29.6177
25.3048
36.6354
66.5892
111.265
158.809
194.182
206.305
194.131
166.912
138.328
119.376
114.029
119.324
128.664
135.738
136.302
127.964
110.122
84.8651
58.2384
39.4822
37.2876
54.5549
85.2659
115.967
132.074
126.166
102.456
74.945
59.6967
-221.527
-201.831
-176.731
-154.977
-140.827
-133.646
-129.558
-124.568
-117.604
-111.403
-110.622
-117.861
-130.676
-141.842
-142.854
-128.91
-101.985
-70.1141
-43.2889
-28.1947
-25.358
-29.9322
-35.3988
-37.3562
-35.3307
-31.5512
-28.156
-25.5946
-22.7852
-18.6184
-13.3717
-8.43021
-4.83472
-1.66246
3.64631
13.1562
26.3056
39.2461
46.8146
46.0334
38.4902
29.8405
26.4572
31.4466
42.861
54.9003
61.715
60.9424
54.9436
49.001
47.9998
53.6121
63.5868
73.1818
77.5984
74.2347
63.3483
47.7186
31.4353
18.2364
10.0813
6.53407
5.48112
4.59852
3.23827
3.30295
8.41731
21.4767
42.0807
65.9416
86.6457
98.99
101.73
97.964
92.8906
91.0799
94.592
103.038
114.872
128.482
141.829
151.621
153.255
142.639
118.772
85.2771
49.8229
20.6538
2.86925
-3.38036
-1.8844
2.71811
7.71095
12.9529
19.505
27.5256
35.273
39.9004
39.2699
33.3522
24.1222
14.4919
6.93119
2.60231
1.37553
2.52998
4.97647
7.47069
8.83811
8.22605
5.54402
1.5783
-2.31503
-4.78156
-4.93339
-2.44378
2.80765
11.0549
22.3888
36.1962
50.6617
63.0257
70.6151
72.2293
69.0383
64.369
62.2148
65.284
73.6507
84.8855
95.2985
101.618
102.443
98.2534
90.6845
81.6789
73.0109
66.2771
62.6187
61.875
61.5075
56.5309
41.8542
16.7769
-10.5243
-21.9857
4.98378
86.7417
222.022
386.59
538.52
633.609
643.642
568.6
436.405
290.082
169.293
95.4533
67.5494
68.7918
78.5114
82.418
76.398
63.7947
49.9336
38.0617
28.8343
21.8902
17.4968
16.4809
18.9372
23.2992
26.8441
27.4716
25.3345
22.7169
22.4973
26.1571
32.7673
39.6299
44.0737
44.8992
42.9868
40.359
38.9866
39.958
43.1989
47.7145
51.9707
54.2195
52.8807
47.0809
37.329
25.6928
15.1347
8.43831
6.97628
9.93854
14.7023
18.1385
18.1837
14.9932
10.748
8.50103
10.552
16.963
25.4097
32.1932
34.4265
31.8753
27.3333
25.3347
29.716
41.1484
56.5812
70.7303
79.124
80.3901
76.7489
72.3875
70.6859
72.3502
75.5324
77.5601
76.947
74.2202
71.2065
69.58
69.888
71.4971
73.619
76.171
79.9476
85.8513
94.1115
103.64
112.246
117.295
116.72
109.883
98.0834
84.4727
73.1287
67.3862
68.0532
72.8004
77.0837
76.3683
68.5284
55.0659
16.3531
15.9946
16.4987
17.7178
19.79
23.0337
27.5634
33.1447
39.0576
44.0711
46.838
46.3761
42.4864
35.9611
28.5185
22.1951
18.6572
18.5395
20.9081
23.1456
22.0542
15.4009
3.63687
-9.46587
-17.8818
-16.1224
-2.50074
19.3822
41.8543
56.9674
60.4008
53.6412
42.6934
34.4262
32.9702
38.1938
46.8897
55.6694
63.107
69.8396
76.8941
83.8499
88.3458
87.6564
80.9597
70.509
61.1628
58.0362
63.9564
78.1004
96.618
114.357
126.89
131.872
129.44
121.828
112.181
103.586
98.123
96.1913
96.7739
98.2874
99.6739
100.825
102.448
105.375
109.92
115.689
121.794
127.023
130.239
130.106
125.201
114.398
97.723
76.9693
55.3656
36.7277
23.7257
16.8035
13.8726
11.4322
6.40686
-2.06
-11.8469
-18.9673
-19.9761
-14.3211
-5.38378
0.557057
-2.50285
-16.946
-40.1078
-65.2882
-85.0826
-95.2987
-96.7809
-94.3264
-93.5098
-97.6661
-106.444
-117.139
-126.979
-134.94
-141.635
-147.642
-152.265
-153.53
-150.131
-143.771
-139.98
-146.006
-165.849
-195.316
-219.818
-217.446
-167.655
-62.203
86.7801
246.653
374.107
431.571
403.033
301.173
162.053
29.2864
-64.1679
-107.478
-111.901
-100.237
-92.8547
-98.4222
-113.025
-126.621
-131.123
-125.158
-113.144
-100.795
-90.8973
-82.4074
-72.6779
-60.6311
-48.2853
-39.4871
-37.0137
-40.4223
-46.1775
-49.8383
-48.8264
-43.9105
-38.2838
-35.1245
-35.2026
-36.3381
-34.8225
-27.8501
-15.6872
-1.66485
9.57729
14.7271
13.4825
8.42265
3.3756
1.16597
2.31574
5.43806
8.34627
9.55356
8.78862
6.60741
3.80851
1.04592
-0.917627
-0.992384
1.95395
8.27528
16.9594
25.5453
31.014
31.4891
27.2378
20.4267
14.0248
10.2252
9.54832
11.0966
13.5315
16.0156
18.2584
20.1501
21.2308
20.8096
18.6048
15.5361
13.7659
15.993
24.0067
37.6823
54.8319
72.0818
86.2509
95.552
99.9567
100.918
100.495
100.601
102.33
105.884
110.894
116.761
122.927
128.861
133.775
136.303
134.671
127.566
115.01
98.9721
82.9841
70.6399
63.8247
61.8039
61.5814
59.6315
53.822
44.6352
34.9732
28.5012
27.6219
32.3601
40.3128
47.8031
51.576
50.0267
43.6114
34.4781
25.4266
18.8035
15.6658
15.671
17.5346
19.7843
21.3546
21.8417
21.1215
18.9188
14.7202
8.04966
-0.951777
-11.2168
0
0
-1e-006
-7e-006
-1.8e-005
-2.7e-005
-2.5e-005
-1.2e-005
-1e-006
-8e-006
-4.3e-005
-9.3e-005
-0.000125
-0.000115
-6e-005
-6e-006
-1.9e-005
-0.000128
-0.000288
-0.000395
-0.000347
-0.00013
0.000126
0.000185
-0.0002
-0.0012
-0.002858
-0.002699
0.020515
0.033308
0.013865
-0.041681
-0.09942
-0.100806
-0.029701
0.08447
0.140425
0.042907
-0.177462
-0.402708
-0.423654
-0.138411
0.283239
0.497834
0.225643
-0.523513
-1.33375
-1.53359
-0.645265
1.3555
4.00167
6.54449
8.30814
9.03998
8.79717
7.77702
6.22557
4.5564
3.29779
3.1095
4.45944
7.16301
10.2848
12.5226
12.8731
11.3987
9.19045
7.69003
7.76396
9.20278
10.9973
12.2396
12.9045
14.0353
16.9786
22.384
29.6335
36.9919
42.3995
44.2388
41.9099
35.8948
27.5815
18.9703
12.3391
9.54587
11.1314
15.7859
20.6744
22.6426
20.054
13.9127
7.37067
3.9953
5.59973
11.1108
17.1936
20.4669
19.476
15.6345
12.0765
11.5173
14.3603
18.6208
21.2876
20.4395
16.7045
13.1409
13.1986
18.4746
27.6023
36.7655
41.8543
40.8273
34.7048
27.0402
21.7702
21.0064
24.1849
28.7107
31.786
32.1148
30.4678
28.8597
28.9964
31.1845
34.347
37.011
38.6092
39.919
42.4239
47.049
53.0422
58.039
59.4243
55.9636
48.7839
41.0831
36.5458
37.4032
43.4478
52.3965
61.3782
68.6039
74.0886
79.0827
84.581
90.3058
94.4938
94.9823
90.7103
82.6707
73.6721
67.1372
65.4453
68.7898
75.1192
81.3383
84.8494
84.8082
82.3144
78.9586
74.6972
66.8821
51.4376
27.0249
-0.173923
-14.5042
5.36262
76.631
200.804
356.918
505.016
599.974
610.277
532.34
392.733
236.715
108.889
35.4455
16.6799
32.286
55.1382
65.4466
58.1642
40.9158
25.8585
20.9204
25.6377
32.9967
35.0787
28.2572
15.1099
2.23739
-4.05643
-1.34064
8.04391
18.936
26.5548
28.7571
26.6776
23.4309
22.0713
24.2297
29.7143
37.1063
44.5704
50.6393
54.5417
56.4765
57.5708
59.5564
64.0494
71.8518
82.2032
92.8931
101.088
104.582
102.783
96.9948
89.7495
83.6426
80.1499
79.0833
78.8283
77.1605
72.3518
64.0581
53.7628
44.1144
37.8337
36.3573
39.0344
43.2823
45.8869
44.4601
38.7992
30.9004
23.7847
19.8641
19.5058
20.9132
21.3585
18.9455
13.8872
8.40482
5.43593
6.7955
12.1353
19.1505
-11.1286
-10.2616
-4.61264
4.10506
12.8419
18.5702
19.5598
15.9864
9.7254
3.44319
-0.535622
-1.11978
1.24022
4.93124
8.2285
10.1322
10.6636
10.4614
10.172
9.93074
9.50355
8.82085
8.32617
9.13256
12.4045
18.5175
26.52
34.2328
39.156
39.7072
36.0548
30.1171
24.6206
21.6686
21.711
23.396
24.5066
23.3218
19.599
14.6661
10.5798
9.0602
10.5574
14.0927
17.7906
19.7485
18.9589
15.7238
11.6116
8.86956
9.312
13.3894
19.7534
25.7417
28.6542
27.0718
21.6739
15.0223
10.2853
9.75669
13.8372
20.8053
27.6895
31.4083
30.0664
23.876
15.3133
8.501
7.66671
15.1695
30.1425
48.3276
63.6045
70.8685
68.4703
58.9769
47.7638
39.9258
37.576
38.9886
40.2106
37.8531
31.4756
23.8843
19.2092
20.1597
26.2391
34.0457
39.2901
39.3897
34.8957
28.996
25.5847
26.8662
32.1291
38.2611
41.5781
39.874
33.643
25.6403
19.0902
15.9752
16.2688
18.5071
21.2681
24.2723
28.3837
34.4861
42.0087
48.5454
50.7346
46.1917
35.1507
20.7244
7.55501
-0.241876
-0.846226
4.7958
13.821
22.6515
28.2496
28.7814
24.1909
16.4167
8.83591
4.72749
5.0728
7.00528
4.78919
-5.90971
-22.1983
-30.6752
-10.2595
57.9963
178.331
332.286
481.144
579.97
596.885
527.981
399.402
255.225
137.596
69.6215
49.1394
55.5436
64.0032
58.7225
38.3277
12.4122
-7.12258
-13.7392
-8.86727
0.683894
7.71833
8.71546
4.74067
-0.36956
-2.90445
-1.26593
3.62648
9.37912
13.6597
15.4187
15.1864
14.5405
15.0051
16.915
19.3181
20.5354
19.2675
15.5073
10.8162
7.44754
7.11142
9.93682
14.5262
18.9139
21.7446
23.0079
23.9646
26.1687
30.4089
36.0525
41.2413
43.929
42.8791
38.3928
32.1893
26.5315
23.1808
22.5771
23.5792
24.0923
22.1083
16.8716
9.3999
2.22136
-1.84451
-1.11962
3.97585
11.0019
16.6927
18.6123
16.2529
11.2863
6.61185
4.90886
7.38335
13.3966
20.8835
27.2245
30.4348
29.8776
26.5452
22.5977
20.3933
21.3281
25.1273
29.8906
33.0223
32.6621
28.8329
23.5502
19.8913
20.1734
24.6633
31.3541
37.0787
39.2522
37.376
33.166
29.4145
28.2543
29.9405
32.7578
34.1906
32.3692
27.2744
20.6692
15.1645
12.6498
13.3515
15.6036
16.9362
15.6464
11.9484
7.95349
6.47818
9.07325
14.8346
20.7504
23.5142
21.867
17.6044
14.743
17.1206
25.9428
38.9099
51.7865
61.0121
65.8539
68.5867
72.5377
79.5623
88.4926
95.7458
97.5719
92.4015
81.6892
68.8806
57.3169
48.5887
42.2529
37.0806
32.5549
29.5759
29.66
33.4307
39.4984
44.9762
47.1701
45.2686
40.5592
34.8489
28.1384
18.0438
2.23152
-16.7438
-27.7906
-12.6649
46.2508
154.815
298.643
443.664
547.322
576.287
521.458
402.45
258.653
131.876
49.4641
16.1697
17.7393
32.2883
42.3565
41.3044
32.2281
22.0356
15.6431
13.4471
12.6999
10.6757
6.86903
3.14704
1.99713
4.53892
9.67071
14.7852
17.3744
16.6055
13.7182
11.2701
11.5496
15.0848
20.1867
23.8774
23.6905
19.3142
13.0439
8.69407
9.4258
15.7972
25.4562
34.5206
39.9201
40.9948
39.4649
37.9822
38.18
39.5634
40.147
38.1377
33.5712
28.75
26.9736
30.589
39.3771
50.1956
58.2231
59.3813
52.4502
39.8922
26.7248
18.2412
17.413
23.4043
32.114
38.47
39.2117
34.6882
28.4307
24.9017
26.6302
32.5938
38.7955
40.7863
36.5105
27.6625
18.7699
14.6556
17.7479
27.0531
39.028
49.6263
56.1868
58.0728
56.0554
51.2077
44.3248
36.0557
27.4924
20.2719
16.109
15.7975
18.5545
22.3531
24.9618
25.1229
23.1753
20.5075
18.3777
17.0297
15.6737
13.3511
9.96191
6.59188
5.00817
6.47775
10.9137
16.9621
22.9791
28.037
32.2294
36.2073
40.2296
43.5883
44.9764
43.6092
39.907
35.6186
32.8368
32.7722
35.2
38.8206
42.1022
44.1595
44.9042
44.6019
43.5966
42.3819
41.8461
43.552
49.1348
59.1646
72.2065
84.7938
92.7681
93.2493
86.1732
74.3707
62.1499
53.1794
48.8491
47.9689
47.8501
46.1867
42.4045
37.7094
34.3797
34.5121
38.8434
46.3033
53.9861
57.6637
52.7613
36.2574
9.43438
-19.5504
-35.2611
-18.7645
44.7448
156.884
300.56
442.121
542.132
570.661
520.065
408.609
272.365
149.755
66.2991
27.0257
19.4413
23.9717
25.1933
18.0177
6.51954
-2.09705
-3.54091
1.07399
7.07276
10.1051
9.11856
6.51612
5.92942
9.38589
15.8352
21.8618
23.7515
19.7665
11.0871
1.28638
-5.39064
-6.05127
-0.314305
9.81031
20.9892
29.9317
34.615
34.7455
31.5033
26.9721
23.3647
22.5288
25.3103
31.2805
38.6496
44.8304
47.6393
-0
-5e-006
-1.9e-005
-4e-005
-6e-005
-6.4e-005
-4.3e-005
-1.2e-005
-1.2e-005
-8e-005
-0.000209
-0.000334
-0.000356
-0.000231
-3.7e-005
4.6e-005
-0.000153
-0.000619
-0.001086
-0.001173
-0.000666
0.000214
0.000754
1.5e-005
-0.002701
-0.005993
0.00595
0.035078
0.053679
0.035041
-0.06078
-0.196879
-0.267363
-0.148542
0.124416
0.36608
0.291606
-0.23726
-0.968971
-1.34534
-0.884669
0.355453
1.53046
1.46764
-0.36385
-3.18483
-4.96471
-3.44308
2.3191
10.9715
19.2593
23.7491
22.8028
17.7163
11.9899
9.32097
11.536
17.5941
24.3522
28.505
28.4678
25.114
20.9873
18.5851
18.9227
21.1139
23.1022
23.044
20.3382
15.8201
11.137
7.69399
5.96259
5.54445
5.8238
6.73383
9.03639
13.9158
21.9655
32.4255
43.179
51.7367
56.5709
58.0516
58.1689
59.3489
62.8495
67.9399
72.2404
72.9536
68.2856
58.4264
45.4653
32.5859
23.0587
19.0876
21.0144
27.0011
33.5522
37.0919
35.9113
31.416
27.3361
27.0703
30.2337
31.3908
23.0268
2.06806
-23.6896
-34.4164
-5.24751
80.3923
218.034
377.933
513.877
581.97
560.251
458.835
314.853
174.989
75.1836
27.6093
20.8731
31.2818
37.5004
30.2993
13.3345
-3.12328
-10.4359
-6.56683
4.27922
15.5954
22.7798
24.9852
24.3044
23.4903
24.153
26.2072
28.5505
30.0078
29.9794
28.813
27.5892
27.6612
30.1083
35.2422
42.3755
50.088
56.8669
61.8602
65.0752
67.0596
68.1768
68.2595
67.0077
64.7733
62.8929
63.1218
66.4119
71.7366
76.4266
77.6412
74.2433
67.6163
60.6661
55.6916
52.778
49.9554
45.0705
37.9334
30.9353
27.3531
28.741
33.3307
36.8639
35.5318
28.7994
20.037
14.4276
15.5249
22.8716
32.3515
38.8905
39.6289
35.2982
29.1169
24.4436
22.8436
24.008
26.8513
30.7441
35.88
42.2388
48.6624
52.819
52.4532
46.9027
37.9034
28.8102
22.8059
21.2604
23.4972
27.7452
32.3835
36.6635
40.5389
43.7388
45.4249
44.5207
40.4357
33.7584
26.0672
19.1103
14.0383
11.1931
10.345
11.0483
12.8167
14.9345
16.4305
16.4599
14.8035
12.1581
9.74771
8.53607
8.59162
9.18493
9.49612
9.49245
10.2342
13.1365
18.7062
25.7166
31.619
33.7251
30.7585
23.7432
15.7618
10.6637
11.4306
18.8312
31.2842
45.506
57.8548
65.549
67.4544
64.1295
57.2177
48.6541
40.1448
39.5132
41.1826
41.557
39.5439
35.0985
29.4205
24.4602
21.8033
21.5717
22.255
21.6566
18.3974
12.9843
7.959
6.59505
11.0858
21.0288
33.3579
43.6404
48.299
46.2983
39.5839
31.8201
26.4573
25.0175
26.5969
28.9138
29.9772
29.2516
27.8459
27.5645
29.5495
33.3382
37.0987
38.5965
36.4706
30.9101
23.6028
17.0413
13.4792
14.337
19.9239
29.3234
40.5917
51.1544
58.2707
60.0116
56.2733
49.1631
42.4126
39.7688
43.0166
50.7094
58.7574
62.7726
60.7704
54.7309
49.7754
51.1107
60.4915
74.6679
86.7825
90.1639
82.2586
66.1596
48.892
37.4537
35.0016
39.5981
46.0423
49.308
47.2304
41.0101
33.6975
27.9299
24.7039
23.5823
23.5466
23.3157
21.1424
14.9014
3.71627
-9.02985
-13.1736
6.88109
65.8524
168.099
300.363
431.81
523.913
546.212
490.36
374.627
236.11
114.636
36.4305
5.94239
8.87972
23.1744
31.0472
25.8569
11.4674
-3.57229
-12.3806
-12.9341
-7.48523
-0.011524
6.28639
9.8875
10.5237
8.67214
5.28891
1.82687
-0.250354
-0.096775
1.9055
4.37549
6.07265
6.99657
8.72152
13.2284
21.1488
30.6148
37.9804
39.9407
35.9352
29.0628
24.6013
27.0509
37.5685
53.1892
68.2965
77.4508
77.9765
70.6854
59.1604
48.0518
41.317
40.9223
46.4391
55.0692
62.5618
64.8184
59.7611
48.5128
35.0587
24.2073
19.029
19.4277
22.6003
25.2467
25.7854
25.0903
25.3004
27.7449
31.6053
34.4189
33.9723
29.9186
23.954
18.5195
15.0749
13.4228
12.435
11.6623
12.0695
15.2447
21.8523
30.3723
37.4852
39.8527
36.2832
28.5475
20.3328
15.0704
14.0024
15.9556
18.5137
19.8122
19.711
19.492
20.4287
22.6444
24.9627
25.8226
24.5854
22.2966
20.9207
21.9804
25.336
28.9035
29.8864
26.6129
19.7598
12.117
7.03667
6.40996
9.57756
13.8651
16.3789
15.9732
13.8515
12.5029
13.7487
17.2769
20.7289
21.4581
18.5959
14.0367
11.2684
13.0491
19.5
27.9398
34.797
38.1568
38.9348
39.8767
43.0321
47.4968
49.42
44.517
31.3266
13.0264
-3.8949
-13.1418
-12.3966
-4.70701
3.30551
5.55456
0.19916
-9.4807
-17.6796
-20.3019
-18.4382
-18.4347
-27.8413
-48.8089
-73.1017
-82.0618
-53.2182
28.1158
158.182
311.08
445.654
521.118
514.493
430.927
301.368
168.414
67.7678
14.8865
2.69754
10.4757
17.3344
12.5131
-2.38073
-18.5122
-27.6216
-27.1969
-20.7461
-14.2185
-11.7983
-14.0404
-18.4903
-21.9024
-22.2555
-19.452
-14.8611
-10.4775
-8.0371
-8.2055
-10.2818
-12.3426
-12.13
-8.29898
-1.43788
6.04218
11.1577
12.2826
10.5129
9.3368
12.6828
22.5409
37.4724
53.1335
64.603
69.2015
67.893
64.4567
62.9852
64.9849
68.3135
68.5516
62.1073
48.9587
33.3065
21.4521
18.1393
23.6647
33.6637
41.8292
43.5454
38.4061
30.0184
23.4376
21.9289
25.4118
31.1825
36.0731
38.465
38.7958
38.4962
38.507
38.7586
38.5452
37.4735
36.0001
35.1864
35.8334
37.8146
40.2244
42.0337
42.7509
42.5569
41.9606
41.2481
40.2455
38.6806
36.5739
34.406
32.9176
32.7107
33.8848
35.9272
38.0211
39.4226
39.6704
38.5996
36.2596
32.9472
29.1087
25.253
21.7799
18.88
16.5519
14.7301
13.5049
13.0503
13.4044
14.234
14.9677
15.2282
15.2208
15.8151
18.1479
22.6117
28.2062
32.7359
33.9115
30.7996
24.8046
19.1991
17.6201
22.1169
31.9161
43.806
53.8763
59.605
60.9754
59.9994
58.9541
58.8587
58.8049
56.6713
50.8645
41.5855
30.8305
21.4223
15.4945
13.3851
13.6539
13.9733
12.4691
8.82255
4.43081
1.60011
1.96555
4.85977
6.69433
2.48675
-10.6058
-28.8409
-39.5787
-23.6819
36.5888
146.925
293.176
441.92
551.217
587.407
540.146
427.558
288.236
164.136
83.1553
50.2954
50.5621
60.9134
63.3734
52.3292
33.3619
16.1704
7.3503
7.0737
10.85
13.9554
14.629
14.2975
15.3585
18.7204
22.9753
25.8223
26.0268
24.2967
22.6146
22.4944
23.6598
24.3276
22.6679
18.4487
13.585
11.0561
13.0885
19.9854
30.0093
40.4854
49.2179
55.2784
58.7309
60.0105
59.4158
57.358
54.896
53.9444
56.4307
63.0413
72.1115
79.9828
82.82
78.9156
69.8373
59.7154
52.8377
51.1273
53.0301
54.7704
52.8237
46.2058
36.8867
28.4752
24.0172
24.389
28.3347
33.5925
38.2436
41.5282
43.5402
44.4419
44.0386
42.0357
38.6178
34.8915
32.6581
33.5694
38.1072
45.1464
52.241
56.8
57.273
53.9867
49.043
45.2287
44.4728
46.876
50.6321
53.0291
51.9477
47.0625
39.8785
32.9048
28.5006
27.9993
31.4378
37.848
45.6412
52.858
57.6065
58.6237
55.8177
50.6875
45.7819
49.7939
51.6621
52.2939
52.8128
53.7754
54.7923
54.8202
52.9576
49.0565
43.9317
38.9874
35.4482
33.8162
33.8916
35.0057
36.3221
36.9422
36.0944
33.3378
28.8994
23.9165
20.2335
19.3431
21.4712
25.1663
27.7679
26.7657
21.3203
12.9169
4.72055
0.184205
1.38842
8.02413
17.6437
26.7361
32.1423
32.2998
27.8397
21.1255
15.1797
12.3557
13.28
16.7418
20.5252
22.6822
22.5837
21.083
19.6509
19.2417
19.7078
20.2213
20.1865
20.0124
20.9368
23.9064
28.4518
32.4817
33.4025
29.8974
23.1473
16.4113
13.0373
14.2483
18.1562
20.8807
19.0801
12.3561
3.76303
-1.95738
-1.34645
5.51558
15.1393
22.6418
24.7133
21.3998
15.8416
12.024
12.3655
16.3753
21.3619
24.2283
23.3899
19.3582
14.1137
9.58429
6.53407
4.44033
2.34939
-0.134731
-2.25194
-2.37692
0.993318
8.20642
18.1577
28.5913
37.2354
42.7571
45.1565
45.4674
44.8197
43.6573
41.5267
37.6422
31.8415
24.9914
18.7131
14.5067
12.6607
11.9643
10.5064
7.05156
2.12297
-2.18937
-3.81925
-2.95051
-3.15773
-9.70661
-25.1673
-44.3626
-52.2338
-27.8597
45.8614
170.562
325.632
471.672
564.612
574.505
499.519
367.316
222.65
107.276
42.9744
25.9583
34.4108
43.4714
38.6133
20.4476
-0.038629
-11.2212
-8.53711
3.74102
16.6067
22.4946
19.3779
10.7359
2.74295
0.312352
4.83712
14.3475
24.9864
32.905
35.6867
33.0794
26.9609
20.6769
17.7464
20.4345
28.6123
39.6934
49.7658
55.606
56.3742
53.9484
51.8004
52.9125
57.9864
65.1011
70.9967
73.1978
71.5608
68.2821
66.4419
67.933
72.1848
76.6648
78.4654
76.183
70.6098
64.0859
58.9183
56.0413
54.7105
53.3012
50.4357
45.6822
39.6518
33.473
28.3944
25.495
25.5413
28.6644
34.0503
39.7265
43.0159
41.6739
35.3802
26.257
18.165
14.7783
17.4491
24.1596
30.5548
32.4713
28.4612
20.9372
14.7676
14.3473
21.0251
32.3859
43.7442
50.9994
52.7775
50.6719
47.6
45.5636
44.3497
42.1653
37.3817
30.1631
22.7916
18.4515
19.3821
25.5883
34.8009
43.7137
49.4707
50.5004
46.6018
38.6656
28.2974
17.7533
9.64405
6.32505
8.94042
16.5538
26.2802
34.3987
38.256
37.4887
33.9933
30.49
28.8813
29.2608
30.4602
31.4816
32.5496
34.9043
39.5798
45.9972
53.3224
51.0412
48.1924
46.5106
47.4554
51.2299
56.5837
61.4485
64.0268
63.5628
60.3588
55.2974
49.1605
42.3197
34.8901
27.2434
20.1053
14.297
10.3831
8.37861
7.6703
7.29098
6.40114
4.69357
2.49288
0.515334
-0.417725
0.211947
2.49006
6.08123
10.3458
14.5541
18.1994
21.0074
22.8076
23.6022
23.5715
23.1911
23.2252
24.5139
27.5399
31.9603
36.519
39.4786
39.4302
36.1003
30.6604
25.1767
21.6124
20.8638
22.4207
24.9024
26.9872
28.2357
29
29.9128
31.0889
31.6557
30.2255
25.7208
18.4658
10.5813
5.15677
4.82159
10.2911
19.8211
29.7888
36.2448
36.7419
31.3187
22.3253
13.2132
7.06474
5.53408
8.5124
14.3804
20.8292
25.6328
27.4375
26.2189
23.2257
20.4646
19.7691
21.9103
26.2021
30.8518
33.969
34.5913
33.1454
31.1018
30.1278
31.148
33.8667
37.0337
39.1276
39.179
37.2031
34.3073
32.3781
33.2716
38.0085
46.0362
55.2534
62.9683
67.0586
67.265
65.2335
63.2664
62.6514
62.4543
60.0133
52.7701
40.1745
24.5148
9.98938
0.661032
-1.49441
2.52528
9.5474
15.7174
18.2683
16.3798
10.8599
2.95237
-7.0411
-20.0778
-36.926
-55.0162
-65.4989
-53.1181
-1.0706
100.108
243.45
402.232
536.326
606.953
593.331
502.603
367.005
229.489
125.205
68.4472
51.35
53.4865
55.3828
48.1103
34.425
22.7175
19.4506
24.8377
33.9325
40.7986
42.3431
39.25
34.1207
29.1397
24.9481
21.2162
17.919
15.9389
16.4785
19.8785
24.9954
29.8018
32.5783
32.9341
32.0621
31.7699
33.294
36.4747
39.9785
42.3245
42.8815
42.5348
43.218
46.7481
53.5844
62.3051
70.2486
74.9552
75.5345
73.2361
70.4364
69.0219
69.1293
69.256
67.4993
63.3481
58.2123
54.544
53.9256
55.6477
57.0447
55.2984
49.6437
42.1636
36.5423
35.4528
38.5739
42.6648
43.672
39.5891
31.9301
24.8512
22.5018
26.3896
34.3542
41.7879
44.2869
40.1152
31.0957
21.493
15.6908
16.0495
21.872
29.8918
36.0729
37.5784
33.996
27.2424
20.4729
16.4109
16.1554
19.1337
23.8289
28.7788
33.202
36.8033
39.2623
39.9489
38.1536
33.9087
28.3379
23.3754
20.6055
20.3309
21.4004
22.0896
21.3233
19.3765
17.371
16.1786
15.6819
14.8775
12.9661
10.3541
8.45611
8.63832
10.9604
13.9314
24.5105
29.5495
24.4753
13.4938
2.32967
-5.55571
-9.76632
-11.4625
-11.5364
-10.1114
-7.1305
-3.14197
0.589083
2.84498
3.19661
2.25724
1.19044
1.03485
2.08799
3.87891
5.40885
5.79514
4.88157
3.57095
3.643
7.07271
14.8349
25.9163
37.153
44.523
45.289
39.8421
31.9138
26.7572
28.2434
36.5557
48.0483
57.4378
60.9614
58.455
53.2401
49.518
49.5877
52.315
54.2242
52.033
45.1267
35.9307
28.2603
24.6482
24.7868
25.853
24.6853
20.0921
13.5672
8.32841
7.17499
10.8164
17.7171
25.1523
30.7445
33.3329
33.0032
30.6948
27.7166
25.3342
24.5702
25.9179
28.8846
31.9389
33.1914
31.5627
27.6516
23.6978
22.3155
24.8212
30.1704
35.4872
37.783
35.9376
31.5242
27.9228
28.1318
32.7649
39.487
44.3348
44.2317
39.005
31.6055
26.3785
26.4309
31.4986
38.0021
41.0639
37.493
27.8542
16.2106
7.81695
6.12033
10.8135
18.3611
24.2984
25.951
23.739
20.2795
18.2567
18.5407
19.9522
20.5639
19.5407
17.966
17.9025
20.4627
24.5345
27.2596
26.037
20.7221
14.3299
11.3876
14.9665
24.5064
35.9117
43.9328
45.3807
40.7911
33.809
28.6474
27.515
29.6382
32.5509
34.121
34.0448
33.7566
35.1798
39.3727
46.0323
54.0772
62.4687
70.4903
77.4306
82.1207
83.0403
79.0305
70.1777
58.1551
45.7602
35.5579
28.9454
25.8737
25.1216
25.0257
24.2699
22.543
20.6612
20.106
21.7056
23.9762
22.6182
12.1486
-9.67
-36.8477
-53.2009
-36.5976
30.7589
150.541
301.881
445.436
537.754
549.608
478.946
351.531
209.049
91.0509
19.9827
-3.95857
2.99226
19.8966
31.5429
32.8373
26.7028
18.6077
12.0894
7.53908
3.80651
0.425627
-1.54525
-0.559434
3.85731
10.2283
15.7592
17.9787
16.3177
12.3393
8.69599
7.46535
9.11027
12.2465
14.7871
15.447
14.5654
13.8834
15.4913
20.5569
28.6148
37.939
46.615
53.4795
58.6308
62.895
67.0717
71.1478
74.3425
75.4831
73.6799
68.831
61.8036
54.2784
48.3497
45.8178
47.5107
52.5788
58.3742
61.2883
58.3083
48.6612
34.716
21.3467
13.6793
14.5461
22.7591
33.4622
40.5262
39.8343
31.485
19.7701
10.7565
8.7012
13.8593
22.5518
29.7036
32.0069
29.8199
26.5295
25.9427
29.4857
35.2731
39.2828
38.0922
31.2873
21.7894
14.137
11.864
15.5742
22.8572
29.8964
33.6271
33.048
29.3459
24.7301
21.3031
20.2129
21.65
25.0515
29.4808
33.8101
36.7538
37.2024
34.6722
29.5748
23.2501
17.5565
14.2074
14.0807
17.0364
22.0144
27.4269
31.7742
33.9744
33.6193
31.0044
27.0025
22.8645
19.8736
18.8894
19.8437
21.704
22.9004
22.199
19.5324
16.3411
14.986
17.4259
23.9388
32.6666
40.5336
44.8493
44.8097
41.8827
38.9853
38.6524
41.7693
47.3076
53.275
58.1219
61.7207
65.2121
69.8852
76.0749
82.6454
87.5088
88.6826
85.2685
77.7907
67.9567
57.9916
49.9787
45.2987
44.2281
45.8437
48.3103
49.4344
47.7149
43.1434
37.5092
33.4495
32.6073
33.9081
33.0682
24.3114
4.3671
-23.0491
-44.9537
-41.7397
5.27955
103.563
241.745
389.568
506.878
558.913
530.824
434.156
301.751
173.517
80.0995
32.5759
22.2737
29.617
36.0437
32.4228
20.212
6.85191
-0.815738
-0.78886
4.01539
8.80539
10.2313
7.89935
3.73129
0.369131
-0.26228
2.34028
7.4616
13.6
18.7864
21.0901
19.3279
13.7557
6.28438
-0.080689
-2.35773
1.09463
9.83359
21.6448
33.6984
43.6135
50.2613
53.9579
55.9982
57.7094
59.8285
62.2594
64.2532
64.8365
63.5512
60.8052
57.7771
55.796
55.5374
56.472
57.1482
55.9639
52.2162
46.6621
41.1544
37.4411
36.0043
35.6889
34.4144
30.6042
24.2317
16.9855
11.3168
9.09237
10.582
14.5341
19.01
22.4441
24.1895
24.5289
24.2108
23.8277
23.5795
23.3087
22.6102
20.9874
17.9365
13.3146
7.80726
3.02205
0.99704
3.15038
9.11983
16.4843
21.7508
22.2829
17.9912
11.745
7.91399
9.66515
16.8838
26.0515
32.2778
32.2242
26.232
18.2252
13.2638
14.3293
20.5289
27.7486
31.5023
29.8758
24.8035
20.6482
21.3652
27.6954
36.5087
42.7158
42.3329
34.9476
23.9062
14.4512
10.8504
14.3025
22.6252
31.6994
37.7614
39.0545
36.2484
31.7367
28.2426
27.7259
30.6592
35.9881
41.7359
45.7457
46.5047
43.5783
37.9243
31.3948
26.069
23.6719
25.2324
31.0728
40.8579
53.5348
67.1981
79.012
85.831
85.3147
77.1233
63.5788
49.1049
38.4324
34.4179
36.7508
42.1548
46.0993
45.1349
38.5126
28.4569
18.9257
13.7321
14.8867
21.8977
31.5986
38.7938
37.6917
24.5035
0.71505
-24.3589
-33.8689
-8.14957
66.5373
188.797
337.566
476.271
565.204
577.382
510.072
386.014
243.634
120.944
41.33
7.68368
6.54011
18.2868
27.3468
27.5738
21.1323
13.7015
9.79439
10.4835
13.9343
17.5155
19.4455
19.305
17.5105
14.7652
11.7479
9.01455
7.12191
6.51765
7.45242
9.84465
13.2719
17.1206
20.7079
23.5103
25.1366
25.4951
24.8158
23.6165
22.634
22.8426
25.2501
30.5639
38.7035
48.5039
57.934
64.8152
67.8161
67.1665
64.4551
61.4732
59.156
57.0586
53.9246
48.9786
42.7278
36.7929
32.8843
31.6013
32.0594
32.5367
31.7109
29.377
26.3766
23.885
22.5428
22.2452
22.552
23.1443
24.0332
25.4492
27.5039
29.9497
32.2258
33.6573
33.6884
31.8959
28.2469
23.4063
18.9089
16.7907
18.7522
25.1352
34.3702
43.508
49.4916
50.6331
47.3537
41.8669
36.9403
34.6039
35.3206
37.9861
40.6014
41.224
38.8452
33.8728
28.0103
23.6033
22.5219
25.024
29.5797
33.5543
34.7158
32.5385
28.5058
25.0854
24.1757
25.8271
28.2282
29.0948
27.2655
23.5762
20.2745
19.4708
21.549
24.9005
26.8627
25.4705
20.8542
15.3192
12.0751
13.3161
18.778
25.6746
30.3066
30.0546
24.9958
18.0351
13.3276
13.9093
19.8606
28.1241
34.164
34.7487
30.015
23.6783
20.9654
25.6076
37.4648
52.5071
65.0583
71.0034
69.8208
64.5408
59.4018
57.1528
57.6096
58.2607
56.434
51.1289
43.5888
36.1896
30.7702
27.5739
25.5299
23.3186
20.4835
17.6929
16.0015
15.8976
16.5133
15.5904
10.0924
-2.19521
-20.2757
-37.4321
-40.6603
-13.4624
57.1737
171.979
313.77
449.431
540.59
559.2
500.382
385.126
251.133
136.236
63.0885
32.902
30.2973
35.0995
33.614
23.5072
10.8307
3.16499
3.6962
9.89916
16.3182
18.7476
16.5981
12.4285
9.39069
9.00136
10.4052
11.4039
10.2667
6.84529
2.72918
0.159801
0.700059
4.34906
9.6463
14.6993
18.4132
21.0333
23.791
27.8316
33.1722
38.5642
42.3895
43.9629
44.1201
44.6963
47.2895
52.0084
57.32
61.1509
62.3075
61.1981
59.4327
58.6794
59.5453
61.3534
62.8091
62.824
60.9681
57.3333
52.1327
45.5389
38.0841
30.8848
25.4672
22.9229
23.0385
24.1862
24.1445
21.5507
16.8562
12.2334
10.1447
11.7338
15.912
19.9228
21.0239
18.3357
0
-0
-1e-006
-6e-006
-1.5e-005
-2.6e-005
-3.7e-005
-4e-005
-3.7e-005
-3.7e-005
-5.5e-005
-9.9e-005
-0.000158
-0.000212
-0.000237
-0.000231
-0.000232
-0.000289
-0.000426
-0.000611
-0.00076
-0.000797
-0.000719
-0.000646
-0.000816
-0.00154
-0.00273
-0.000287
0.009499
0.020468
0.020095
0.000615
-0.049155
-0.097526
-0.105479
-0.050197
0.031722
0.059093
-0.022564
-0.222555
-0.441394
-0.498151
-0.336024
-0.077355
0.025364
-0.269517
-0.932172
-1.61913
-1.75902
-0.833162
1.40612
4.77876
8.78
12.72
15.885
17.6398
17.751
16.6287
15.5673
16.4438
21.0047
29.8574
41.8774
54.4123
64.3594
69.6828
70.3828
68.3778
66.3367
66.1576
67.872
69.6871
69.0802
64.2741
55.4196
44.8725
36.3063
33.0578
36.4618
44.8289
54.0052
59.5724
59.3616
54.7958
49.7607
47.2654
46.1358
40.5244
24.1914
-2.43533
-26.9518
-26.4521
22.4314
129.331
279.761
435.805
549.807
584.808
531.412
411.76
268.586
145.404
68.6277
40.1429
42.7697
53.3775
55.7257
46.2351
31.5525
21.1281
20.3709
27.9095
37.7083
43.4146
41.9698
34.7478
25.8949
19.5855
17.8214
19.7547
22.5982
23.4132
20.7173
15.1539
8.97378
4.64298
3.44226
4.9854
7.74486
9.97349
10.694
10.2074
9.52431
9.48369
10.2934
11.5433
12.7688
13.8288
15.0746
17.0552
20.126
24.2206
28.8737
33.4932
37.5258
40.5461
42.1563
41.9698
39.8606
36.2334
32.0285
28.3935
26.1466
25.2229
24.7714
23.7212
21.4805
18.3919
15.5072
13.8259
13.6072
14.2357
14.7851
14.8538
14.9098
15.9191
18.4086
21.6755
23.9331
23.2214
18.7767
11.8153
5.12889
1.79298
3.52092
9.54259
16.8608
21.8587
22.1956
17.9423
11.527
6.31755
4.70058
6.8493
11.0505
15.0671
17.692
19.3163
21.2068
24.1631
27.6349
29.984
29.703
26.6986
22.4208
19.0631
18.0292
19.0471
20.5377
20.8689
19.4936
17.1611
15.1308
14.089
13.6678
12.9697
11.5461
9.91784
9.2483
10.4535
13.1915
16.0241
17.2567
16.1073
13.158
9.82895
7.44284
6.59832
7.19063
8.8832
11.5497
15.1103
19.0854
22.3896
23.6634
22.1708
18.6246
15.1577
14.1238
16.6533
22.0557
28.3263
33.5763
37.4148
41.1691
46.8145
55.3716
65.9629
76.0776
82.941
84.9972
82.5685
77.3237
71.1519
65.2274
60.0117
55.6814
52.5858
51.1954
51.6165
52.9684
53.5071
51.7337
47.8328
44.0156
43.2111
46.4794
50.7317
48.9897
34.4572
6.56512
-24.1296
-36.6208
-7.24308
77.8626
212.032
365.619
495.034
559.883
540.27
445.346
308.661
172.976
72.3888
20.5885
9.98344
20.3717
31.295
31.0966
19.2904
2.95758
-9.34178
-12.5635
-6.72697
4.29439
15.3753
22.4455
23.7175
19.8017
13.0298
6.4762
2.92094
3.9633
9.54486
18.1028
27.261
34.6111
38.4963
38.3603
34.8818
29.5291
24.0378
19.8706
17.9912
18.6031
21.2076
24.9052
28.8274
32.4591
35.8443
39.3862
43.402
47.6755
51.366
53.2645
52.6257
49.8386
46.4923
44.5022
45.07
47.6859
50.1343
49.6739
44.6052
35.546
25.3255
17.6516
15.2666
18.4712
25.0169
31.1996
33.9343
32.2013
27.5357
23.0513
21.6234
24.3734
29.9187
35.1232
36.89
33.916
27.3856
20.2294
15.3902
14.1639
15.7573
18.0813
19.3492
19.1661
18.505
18.6502
20.1773
22.6219
25.1082
27.1451
29.0501
31.4925
34.5632
37.1404
37.3592
33.8261
26.8046
18.5552
12.4004
10.9429
14.5715
21.0893
26.8628
28.7106
25.6374
19.222
12.6258
8.79293
8.943
12.1202
15.9565
18.2575
18.2981
17.1257
16.8464
19.1341
24.2377
30.643
35.8005
37.498
34.9786
29.4537
23.4965
19.9116
20.4922
25.3389
32.8794
40.6386
46.2903
48.5394
47.5779
44.6644
41.3536
38.9364
38.0742
39.0752
42.1689
47.6873
55.8345
66.0219
76.7216
85.7178
90.9617
91.517
87.9741
82.0793
75.6878
69.888
64.6842
59.5271
54.2806
49.7689
47.6011
49.1581
54.5291
62.3039
70.3127
76.6283
80.2066
80.3408
75.4291
62.6624
39.9501
9.97843
-16.3267
-20.2716
18.1893
109.541
244.92
393.977
513.795
565.86
533.138
428.237
287.695
155.579
64.8042
25.8488
27.3296
46.518
62.6287
65.4363
55.9514
41.3559
28.4855
20.3877
16.5425
15.2324
15.6298
17.9838
22.617
28.9273
35.251
39.7113
41.0441
39.0094
34.2673
28.0581
21.88
17.1626
15.0433
16.008
19.9004
26.0334
33.6455
42.2038
51.2891
60.2662
68.2655
74.3487
78.0507
79.8378
80.9411
82.8191
86.2375
90.8949
95.7731
99.5138
101.184
100.597
98.2933
95.2039
92.1412
89.3882
86.1766
80.5499
69.9973
52.9837
30.6537
7.86338
-7.67974
-9.15727
5.05991
28.8614
50.1413
56.668
43.1297
14.9276
-14.124
-29.6397
-25.2983
-6.40101
13.9904
24.0988
21.3419
13.343
11.3975
20.7242
34.8214
38.3649
17.2064
-31.3298
-94.9135
-152.167
-184.423
-185.883
-165.813
-141.903
-129.469
-133.61
-148.161
-161.093
-162.328
-148.802
-124.62
-97.3383
-73.2956
-55.1657
-42.0978
-31.8159
-22.8637
-15.521
-11.2667
-11.1786
-14.5168
-18.5627
-19.7042
-15.5531
-6.69673
3.32537
10.1835
11.1172
6.76193
0.644729
-3.15432
-2.55178
1.2909
5.1845
6.55601
5.35486
3.96126
5.323
10.6889
18.6616
26.2268
30.7044
31.3516
29.3623
26.9117
26.0205
27.893
32.9876
41.0973
51.1179
60.7206
66.6679
66.1363
58.4483
45.9424
33.1451
24.5771
22.3655
25.4824
30.6217
34.5253
35.6909
34.7224
33.1766
32.0659
31.0129
28.8803
25.1704
21.0616
19.0176
21.013
26.4261
31.0954
28.7283
14.9317
-7.83042
-27.4911
-24.3605
21.116
117.689
254.755
401.667
516.843
563.956
527.717
421.13
280.044
147.679
56.6699
17.5355
18.6738
36.4364
48.7793
45.0718
27.9643
8.10226
-4.04469
-4.09379
5.12582
16.7689
24.4963
25.7174
22.0467
17.3325
15.0742
16.5588
20.4268
23.7561
23.9491
20.0501
13.2471
6.12753
1.38832
0.642586
3.90198
9.86451
16.8899
23.8415
30.4106
36.6542
42.2796
46.5208
48.5347
48.1568
46.5158
45.8675
48.2692
54.1171
61.3578
66.3646
66.0945
60.2417
51.8009
45.5252
45.0106
50.2798
57.4859
61.3242
58.436
49.589
39.1503
32.1993
31.2246
34.7418
38.5311
38.5721
33.714
26.0573
19.2857
16.3121
17.7234
22.018
26.8738
30.5781
32.6574
33.5629
33.9848
34.5548
35.721
37.6394
40.0362
42.0283
42.4696
40.6377
36.8593
32.4266
28.8681
27.0384
26.8005
27.4778
28.7566
31.1941
35.7111
42.3114
49.2395
53.5705
52.8449
46.8885
38.3496
31.309
28.928
31.4627
35.9956
38.2679
35.4353
27.8283
18.8167
12.8251
12.8277
18.6804
27.342
34.6131
37.4546
35.3574
30.3718
25.7741
24.3952
27.1109
32.6109
38.222
41.3039
40.5213
36.1757
29.9165
23.923
20.018
19.2172
21.5234
25.9784
30.9154
34.4933
35.5074
34.2762
32.9252
34.6359
41.97
55.04
70.8004
84.2514
90.9246
89.4319
82.3592
74.8232
71.3091
72.8933
76.6672
77.6335
72.0015
59.8309
44.9925
32.9799
-1e-006
-1e-005
-3.3e-005
-6.6e-005
-9.1e-005
-8.7e-005
-5.8e-005
-3.7e-005
-7.4e-005
-0.00019
-0.00035
-0.000461
-0.000435
-0.000278
-0.000129
-0.000182
-0.000539
-0.001078
-0.001464
-0.001351
-0.000682
0.000123
0.000217
-0.001372
-0.005351
-0.008802
0.018506
0.060731
0.084912
0.015263
-0.145274
-0.298768
-0.305287
-0.088699
0.220977
0.35281
0.048272
-0.666155
-1.35509
-1.4144
-0.572461
0.738198
1.46488
0.635737
-1.80767
-4.51088
-5.2537
-2.10826
5.31902
15.415
25.2405
31.9668
34.2529
32.7356
29.51
26.9143
26.3631
27.8362
30.2073
32.048
32.4021
31.3016
29.9059
30.0221
33.3398
40.5692
50.9266
62.1641
71.4166
76.4491
76.6021
72.9726
67.6266
62.455
58.181
54.2748
49.7568
44.0829
37.6552
31.576
27.1145
24.9009
24.6584
25.6682
27.3596
29.825
33.5771
38.6447
43.3307
43.8807
35.877
17.8075
-4.72862
-17.1433
0.769795
66.209
182.398
331.56
477.083
576.054
597.126
534.769
412.132
270.481
150.817
77.0616
49.3072
49.4781
54.7183
50.1154
34.0317
14.7641
2.4955
2.06439
10.813
21.616
27.8183
26.7734
20.2443
12.2782
6.46557
4.39426
5.48901
8.02811
10.2134
11.0035
10.437
9.51752
9.79547
12.5254
18.0819
25.5966
33.3229
39.7207
44.2804
47.8695
51.8431
56.9847
62.7133
67.4536
69.7141
69.2845
67.5064
66.3632
66.8917
68.4197
69.0571
67.2324
63.1346
58.799
56.8332
58.4275
62.3057
65.3922
64.781
59.7285
52.0887
45.1534
41.4138
41.0768
42.0947
41.7475
38.6628
33.8095
29.8993
29.6194
33.8075
40.7247
46.8816
48.6771
44.2845
34.7079
23.3866
14.6124
11.7128
15.6268
24.5202
34.8309
43.0336
46.9494
46.2333
42.0291
35.9473
29.4472
23.724
20.0725
19.7337
23.4157
30.4793
38.5078
43.9595
43.824
37.363
26.9049
16.9816
12.2037
14.7058
22.7192
31.4044
35.379
31.8022
22.0689
11.2782
5.39813
7.7395
16.9566
27.4896
32.8927
29.5336
18.81
6.28018
-2.00705
-3.10817
1.1548
5.76165
6.13989
1.39289
-5.19474
-8.56204
-5.58218
2.99271
13.1068
20.3466
22.638
21.1116
18.632
17.3876
17.9351
19.8947
23.5791
30.6794
43.3422
61.7526
82.4712
99.1741
105.575
99.11
82.7086
63.5399
49.157
43.4869
45.085
48.5266
47.9878
40.833
28.8464
16.8152
9.4209
8.72673
13.3927
19.8102
23.7732
21.7888
11.7927
-5.97696
-27.2625
-42.1635
-35.358
9.38625
101.022
232.985
379.821
503.351
566.837
550.743
462.221
332.196
201.549
103.478
51.2949
37.4813
42.5477
47.7427
43.7896
32.0342
19.4709
12.0598
11.1428
14.0169
16.9899
18.0479
17.6068
17.1325
17.5155
18.4206
18.7072
17.4942
14.7215
11.2277
8.36512
7.2919
8.51593
11.6017
15.3609
18.4875
20.4254
21.9683
24.974
31.311
41.3779
53.4994
64.4557
71.1128
72.2737
69.3648
65.5514
63.7889
65.1633
68.3629
70.6325
69.6694
65.0035
58.1594
51.6462
47.3862
45.7874
45.5818
44.791
41.9601
36.9673
30.9523
25.6202
22.3624
21.6089
22.6939
24.4193
25.6543
25.7678
24.813
23.1604
21.2048
19.4829
18.6181
19.2839
21.8839
26.0623
30.5329
33.4421
33.3618
30.3967
26.3726
23.9874
25.2294
30.0356
36.1335
40.3682
40.6034
36.8633
31.204
26.2742
23.8252
23.9354
25.4415
27.061
28.2678
29.4278
31.091
33.3613
35.7242
37.2238
37.0356
34.8418
30.8982
25.9093
20.9254
17.1637
15.6122
16.6246
19.6263
23.2905
26.2683
27.9389
28.7561
29.7555
31.5051
33.4711
34.1748
32.2166
27.4377
21.1298
15.2831
11.5746
10.6114
12.046
15.2339
19.6887
24.9589
30.1175
33.6767
34.2601
31.6842
27.6939
25.5404
28.1547
36.322
47.8071
58.0806
62.4368
58.4055
46.9117
31.7695
17.8381
8.90956
6.37577
9.02698
14.0661
18.6019
20.6822
19.6118
15.7698
10.2115
4.39205
-0.166724
-2.3098
-2.2106
-2.22598
-6.3462
-17.5216
-33.5959
-44.3437
-32.5979
18.9747
117.677
252.372
392.919
499.591
539.09
499.375
395.448
262.559
140.513
57.3089
20.2386
17.829
29.9925
39.5275
38.8207
29.7639
18.8201
11.4914
9.53992
11.4417
14.6247
17.1478
18.2683
18.0976
17.0224
15.5013
14.056
13.0556
12.3251
10.9718
8.17454
4.23706
0.973663
1.08978
6.52678
16.9665
29.4818
40.166
46.4743
48.8398
50.2139
53.8476
60.7361
68.7551
73.9491
73.2202
66.6454
57.6339
50.8019
49.2192
52.6039
57.6363
60.1714
57.7292
50.8298
42.3018
35.407
31.926
31.3494
31.413
29.6679
24.9164
18.1351
12.0874
9.88777
13.4366
22.0964
32.6058
40.5196
42.3532
37.4667
28.3506
19.2098
13.46
11.9888
13.1063
14.1616
13.817
13.1236
14.3723
19.0718
26.1701
32.2508
33.7801
29.564
21.898
15.2624
13.425
16.8487
22.455
25.766
24.0169
17.9823
11.4947
8.80346
11.66
18.3121
24.7369
27.2651
24.8513
19.3878
14.2148
11.839
12.4293
14.0327
14.1819
11.6651
7.38237
3.78034
3.20799
6.34945
11.6592
16.358
18.1227
16.5321
13.3267
11.2681
12.2085
15.8639
20.0793
22.2479
21.1026
17.4751
13.473
10.9402
10.2623
10.4441
10.5033
10.8847
13.489
20.4544
32.1129
46.0535
57.9915
64.0925
63.0241
56.4563
47.7856
39.9012
33.8104
28.848
23.9669
18.964
14.6846
12.1077
11.3625
11.3494
10.4708
8.07819
5.14286
3.70436
5.27476
9.12761
11.7986
8.33027
-4.33935
-23.6885
-39.4033
-34.9139
6.90595
95.137
223.444
368.123
493.895
566.192
564.738
492.236
373.1
243.238
135.582
68.191
40.5947
38.6678
44.3981
44.9846
36.8977
24.1529
13.3648
8.87624
10.7288
15.7876
20.1682
21.5413
19.9836
17.3106
15.6103
15.9787
18.0929
20.6029
21.905
21.2206
18.9674
16.4597
15.1217
15.6576
18.0106
21.6981
26.4536
32.5578
40.271
49.0353
56.9949
61.7349
61.8491
58.1746
53.8477
52.5703
56.1928
63.0554
68.8023
68.9452
61.9472
50.5211
40.1835
35.9495
39.1407
46.7332
53.2858
54.447
49.4489
41.0211
33.1947
28.4907
26.6119
25.3073
22.5734
18.2538
14.2617
12.9334
15.1834
19.8709
24.3367
26.1815
24.7247
21.3572
18.4985
18.0368
20.2828
24.0002
27.2429
28.667
28.2004
26.9985
26.4878
27.3427
28.9874
29.9751
28.9339
25.6091
21.1726
17.6407
16.7398
18.9033
22.9103
26.6461
28.2703
27.1659
24.1517
20.6596
17.793
15.9101
14.7177
13.7713
12.8299
11.9582
11.0917
9.74297
7.27053
3.51959
-0.747606
-3.96852
-4.4695
-1.58774
3.7948
9.53755
13.2502
13.3821
9.98444
4.61226
-0.509282
-3.30827
-2.71849
1.14536
6.97636
12.7772
16.4538
16.4094
12.1443
4.54123
-4.34363
-11.7083
-14.8356
-11.8855
-2.45535
12.1146
28.8716
43.9705
53.7654
56.1537
51.445
42.2879
32.7617
26.3771
24.4527
25.5853
26.6439
24.6213
18.5963
10.3623
3.22492
0.031037
1.33361
5.25511
9.10231
11.6057
13.8513
17.7858
23.3343
26.5046
20.7374
2.19722
-23.8931
-40.8312
-25.3043
40.9951
158.505
303.665
434.815
508.716
500.022
413.221
280.349
145.773
46.2039
-3.27288
-10.716
2.46521
15.5058
18.2392
12.4316
5.99868
5.65078
12.4945
22.8489
31.9825
37.3192
39.267
39.7023
40.2419
41.4356
43.3703
46.5517
51.6984
58.7064
65.9664
70.8923
71.5314
68.0268
62.9753
59.7204
60.0246
62.7242
64.5731
62.7561
57.2515
51.1326
48.5361
51.5783
58.4926
64.4647
64.7847
57.9882
46.9713
37.2102
33.1661
35.6159
41.3424
45.5674
44.9275
39.3198
31.3729
24.3074
19.9459
17.9079
16.5398
14.55
11.8571
9.27848
7.60187
6.88469
6.52512
6.19866
6.44369
8.4786
13.3073
20.5848
28.301
33.6086
34.4449
30.6668
24.2636
18.4837
16.2562
18.6685
24.6878
31.707
36.8408
38.1877
35.6047
30.4922
24.9551
20.6251
18.0332
16.6825
15.7566
14.9303
14.8054
16.5863
21.1196
28.0431
35.6254
41.4037
43.4494
41.4948
37.1341
33.1036
31.695
33.5031
37.0899
39.7938
39.3158
34.9927
28.3058
21.8439
17.8376
16.9108
17.8658
18.5612
17.3563
14.0627
10.0527
7.29051
7.02389
9.07113
12.0611
14.5435
15.8335
16.3626
17.0557
18.4809
20.2816
21.5251
21.4728
20.1829
18.5569
17.5022
17.1915
17.0609
16.422
15.4511
15.5585
18.5481
25.3478
34.8974
44.2768
50.1002
50.4013
45.6271
38.1473
30.562
24.0681
18.2597
12.0581
5.45514
0.47231
0.083873
5.83463
15.9796
25.801
30.1786
26.9526
18.3343
9.22219
3.258
0.103269
-3.34428
-7.76167
-5.82766
18.4773
82.8958
194.932
341.621
488.705
592.28
617.87
557.115
432.392
286.461
162.577
86.2211
57.5841
57.7675
63.236
59.2751
45.1751
29.8487
22.772
26.9306
37.4638
46.0974
46.8886
39.4208
28.0868
18.5555
14.3456
15.4438
19.5121
23.8653
27.1405
29.6625
32.6498
37.0707
42.6622
47.7981
50.4885
49.4733
45.072
39.4346
35.6958
36.4109
42.2103
51.3464
60.5041
66.4372
67.6524
65.0491
61.2631
59.102
60.0239
63.5228
67.6514
70.2912
70.2516
67.7943
64.1338
60.405
56.8633
52.8376
47.3243
40.0244
31.9403
25.1683
21.7589
22.4
25.8246
29.3259
30.1911
27.3575
21.9177
16.5477
13.7869
14.4904
17.4073
20.2541
21.2673
20.4399
19.5213
20.6707
24.6346
29.9766
33.7147
33.0727
27.4725
19.097
11.8836
9.38887
12.71
20.0448
-0
-6e-006
-2.3e-005
-5.2e-005
-8.2e-005
-9.5e-005
-9.1e-005
-8.8e-005
-0.000121
-0.000209
-0.000328
-0.000416
-0.000419
-0.000343
-0.000287
-0.000375
-0.000652
-0.001005
-0.00121
-0.001075
-0.000622
-0.000159
-0.000204
-0.001307
-0.003923
-0.006657
0.008302
0.041963
0.07537
0.047742
-0.069672
-0.198519
-0.250249
-0.147575
0.031863
0.100661
-0.119197
-0.598047
-1.04937
-1.05466
-0.482092
0.295207
0.560713
-0.21616
-1.86552
-3.41123
-3.4976
-1.19609
3.52083
9.92153
17.2378
25.286
34.3101
44.1646
53.5103
59.6415
59.569
51.7849
37.6929
21.4243
8.09918
1.34333
1.4939
5.74363
9.96848
11.3054
9.55584
6.85193
5.91566
8.19938
13.1749
18.945
23.2318
23.9762
19.3421
8.16296
-8.15386
-22.9184
-22.8414
9.23741
86.6682
209.401
357.899
495.979
583.076
591.259
518.393
389.901
247.749
132.273
65.9682
47.3668
56.8686
70.0066
70.0633
53.9649
29.8644
9.43164
0.48803
3.49784
13.0434
22.115
26.1088
24.6297
20.7931
18.6773
21.007
27.806
36.7512
44.4847
48.3202
47.313
42.4543
36.0065
30.4744
27.8314
28.9363
33.4596
40.0266
46.8084
52.2062
55.5154
57.1244
58.0755
59.2638
60.6668
61.4199
60.6502
58.3722
55.8799
54.9278
56.4485
59.7324
62.7284
63.3593
60.8104
55.9943
50.6799
46.1796
42.597
39.1402
35.0704
30.5697
26.6918
24.3741
23.6279
23.3434
21.9427
18.513
13.4986
8.48408
5.57456
6.38723
11.3841
19.6917
29.0297
36.3569
38.6844
34.3354
24.1749
12.1589
4.32593
6.79518
22.9915
51.7566
87.3345
121.412
146.459
158.369
157.641
148.213
134.954
121.45
109.103
97.8662
87.5285
78.5693
71.9665
68.1667
66.3558
64.6706
61.4727
56.5602
51.2829
47.548
46.2422
46.4255
45.9552
43.1803
38.4721
34.2037
33.0332
35.907
41.0259
44.7054
43.7865
37.7254
28.9821
21.3897
17.7592
18.081
20.0263
20.8201
19.3382
16.9692
16.3724
19.291
25.0091
30.5722
32.6814
30.044
24.321
19.1768
17.9013
21.2663
27.1183
31.9399
33.4535
32.1329
30.8776
32.8531
39.1031
47.5844
54.4135
56.1611
51.9161
43.5633
34.4946
27.4335
23.1565
20.5811
18.0257
14.536
10.3199
6.24958
3.13868
1.37294
1.0362
2.05554
4.12748
5.90718
4.59196
-2.8612
-16.8481
-31.6729
-34.1534
-6.82486
64.3201
180.487
324.444
462.842
557.425
580.331
526.286
415.116
283.047
166.997
90.1269
55.4787
49.9317
54.8939
56.9275
52.6166
46.3512
43.77
46.2168
49.6105
47.9028
38.0151
22.6264
8.87497
3.86309
10.2227
24.6357
39.8377
49.0273
49.5525
43.9894
37.7947
35.6271
38.5788
43.9738
47.8553
48.0137
45.4841
43.6911
45.9002
52.7346
61.6807
68.8452
71.5487
69.9123
66.5206
64.4467
65.155
67.8545
70.377
71.0247
69.7643
68.0156
67.2842
67.908
68.6746
67.5861
63.2108
55.6131
46.3087
37.2454
29.6809
23.7174
18.6426
13.7003
8.88765
5.27024
4.25733
6.78703
12.6107
20.1448
27.0141
30.9482
30.7632
26.7532
20.4879
14.2118
9.81761
8.13516
8.79623
10.6528
12.5845
14.1332
15.5976
17.6321
20.6066
24.2168
27.5179
29.5163
29.9264
29.411
29.3207
30.7885
34.0493
38.1007
41.0863
41.311
38.111
32.2309
25.3746
19.3814
15.3439
13.2959
12.4685
11.8942
11.2047
10.7585
11.3898
13.7174
17.533
21.5556
24.0197
23.7033
20.7731
16.8872
14.3183
14.6922
17.8358
21.8262
24.1758
23.4298
20.1632
16.7645
15.9156
18.9132
24.7894
30.8562
34.2357
33.4038
28.8122
22.2649
15.7696
10.5828
7.07372
5.24116
5.24127
7.62545
12.7048
19.9888
28.02
34.7993
38.6017
38.5882
35.1045
29.4687
23.3146
17.9904
14.0552
11.1874
8.45318
4.98095
0.780453
-2.95791
-4.37037
-1.98406
4.30502
12.8493
20.867
25.409
24.0744
15.2938
-1.12238
-22.5255
-41.4143
-44.4764
-15.2999
58.6373
177.041
321.031
455.684
541.719
551.835
483.582
361.304
225.443
114.659
49.9841
29.1715
33.2669
39.9587
35.7733
20.5371
3.19589
-6.67189
-5.76755
1.74936
8.38119
8.77407
2.87573
-5.02775
-9.81317
-9.06001
-4.18258
1.09009
3.43749
1.71864
-2.91361
-8.1927
-12.1813
-13.9664
-13.5135
-10.9733
-6.45862
-0.391707
6.24414
11.9071
15.1528
15.6183
14.6228
14.7385
18.589
27.5023
40.8745
56.5048
71.9009
85.4255
96.744
106.33
114.388
120.374
123.293
122.501
118.48
112.906
108.039
105.508
105.527
106.666
106.66
103.409
95.7923
84.1654
70.2142
56.4114
45.2234
38.2769
35.707
36.1263
37.2048
36.7258
33.793
29.1914
24.7951
22.2693
21.9056
22.2936
21.3623
17.9398
12.7991
8.35422
7.21159
10.493
16.9591
74.1862
42.2639
40.9744
50.6361
55.9597
51.0594
38.5003
24.5287
14.4864
10.4543
11.6582
16.0844
21.6205
26.4578
29.0281
28.3645
24.6942
19.8211
16.5108
16.9419
21.2561
27.1714
31.3376
31.5866
28.5351
25.4899
26.3321
32.7372
42.6341
51.1034
53.3639
47.8947
37.7387
28.9012
26.7295
32.6408
43.2997
52.8849
56.8696
54.8378
50.5064
48.8173
52.3433
59.3945
64.9273
63.8572
54.3137
39.0014
23.5738
13.5127
11.1353
14.7261
19.9507
22.4244
19.9953
13.4542
5.767
0.181833
-1.1219
1.98625
7.78301
13.611
16.9212
16.456
12.7946
8.34797
6.32292
9.25235
17.6062
29.3193
40.6865
48.1295
49.8334
46.444
40.275
33.8299
28.49
24.2724
20.6267
17.4312
15.4205
15.7164
18.8215
24.0775
29.8919
34.6708
37.4721
38.2944
37.4903
35.3289
31.9569
27.6416
23.0506
19.1684
16.6918
15.5687
15.101
14.6867
14.4377
15.2463
18.0778
22.9371
28.4534
32.5406
33.752
32.2332
29.6606
28.138
28.7677
30.8801
32.522
31.8064
28.2459
23.148
18.7313
16.9213
18.2934
21.8424
25.7113
28.3414
29.3291
29.6401
31.1019
35.3366
42.6593
51.6888
59.682
63.8079
62.577
56.7063
48.8184
42.0482
38.2566
37.0082
35.9607
32.5264
25.6207
16.6735
8.71665
4.71941
5.96045
11.4103
18.4966
24.4879
27.4839
26.2393
19.8377
8.15586
-6.12074
-15.1169
-5.29996
38.692
126.265
252.529
394.65
516.779
582.833
571.933
488.229
359.758
226.307
122.451
64.5249
47.5507
52.5254
58.832
54.4842
39.9744
23.6611
14.3913
15.4154
23.1922
30.7941
32.9006
28.8055
22.089
17.3448
16.6715
18.4927
19.5672
18.431
17.4438
21.5276
33.6717
50.5424
61.657
53.8349
19.1494
-38.6067
-103.161
-152.208
-167.957
-145.905
-96.8082
-40.7414
2.86349
23.9013
24.2595
14.1496
5.15392
4.38041
12.3457
24.8064
36.2321
42.7428
43.2925
39.2913
33.618
29.4461
29.1281
33.2337
40.0195
46.0559
47.7532
43.3256
33.8795
22.8077
14.5875
12.1376
15.6392
22.635
29.6985
34.2038
35.4066
34.2505
32.3355
30.8371
30.0825
29.7145
29.3688
28.9537
28.7283
29.0571
30.2684
32.7034
36.6982
42.3052
48.8713
54.7862
57.8747
56.4365
50.3415
41.5539
33.4873
29.4801
31.0887
37.2411
44.674
49.446
48.7601
23.8762
28.91
32.4829
32.609
29.837
26.7326
26.0887
29.3945
36.0218
43.8264
50.3307
53.9369
54.3466
52.4828
50.1156
49.3915
52.2408
59.5322
70.3419
81.7446
89.7544
91.1953
85.5581
75.51
65.7171
60.4341
61.1814
65.9736
70.7072
71.4198
66.2163
55.6885
42.0185
27.5948
14.3814
3.94253
-2.21476
-2.81963
2.26611
11.1946
20.4738
26.759
28.8743
28.737
30.2062
36.2001
46.405
56.754
61.6469
57.5336
45.3696
30.3135
18.8383
15.264
19.7207
28.7161
37.6132
43.3478
45.415
45.1696
44.0482
42.4085
39.6517
35.2038
29.57
24.415
21.7359
22.5388
26.0975
30.0955
31.7721
29.414
23.398
16.1423
11.2815
11.9852
19.3315
31.3909
43.877
52.0476
52.9377
46.8008
36.9481
27.9112
23.0848
23.0945
25.8372
28.1466
27.7929
24.5158
19.6235
14.9036
11.3436
8.93848
7.36454
6.70728
7.6252
10.6005
15.0412
19.319
21.5789
21.1389
19.1498
18.1896
20.7197
27.3705
36.3041
44.1196
47.6167
45.4131
38.4088
29.1934
20.5762
14.3902
10.895
9.04522
7.14866
3.65551
-2.16992
-9.96032
-18.3141
-25.171
-28.5173
-27.2949
-21.9576
-14.8944
-10.2609
-12.7207
-24.9889
-44.4461
-60.7252
-56.655
-13.9559
77.5248
210.992
360.192
486.192
552.108
538.818
453.453
326.007
195.588
93.7168
33.6439
10.1773
8.00486
12.3255
15.3564
16.1605
16.5483
17.1469
16.7867
14.3996
10.8573
8.77148
10.2643
14.8836
19.7765
21.9531
20.6635
18.0324
17.3407
20.3817
26.1579
31.6632
34.1839
33.0307
29.8334
27.2416
27.1958
30.2427
35.8997
43.3461
51.7181
59.9636
66.6483
70.2718
70.2779
67.9107
65.8382
66.8501
72.0804
80.1582
87.9762
92.3337
91.751
87.0342
80.3432
73.6756
67.738
62.2397
56.8267
51.8959
48.6465
48.1395
50.183
53.0447
54.4212
52.8757
48.8734
44.619
42.7238
44.5104
49.0463
53.6226
55.3018
52.5591
46.0159
38.0169
31.2054
27.427
27.0111
29.0737
32.3031
35.7291
38.9297
41.7129
43.7969
44.7278
44.0418
41.8375
39.0369
37.2826
38.377
43.3897
51.8834
61.709
69.5599
72.2837
68.0303
57.1626
42.3702
27.9155
18.1755
15.8843
21.0626
30.9454
41.0629
47.1275
46.7683
40.5164
31.2885
22.7481
17.5004
16.0491
16.9782
18.1648
18.2722
17.4455
17.0377
49.5146
57.3622
62.738
64.6257
63.8864
62.4282
61.985
63.2768
65.6789
68.0043
69.2492
68.965
67.2554
64.4133
60.7211
56.4988
52.2039
48.3689
45.3736
43.111
40.9364
37.9999
33.8224
28.6997
23.673
20.0979
19.0394
20.7004
24.5208
29.3519
33.7413
36.3992
36.3779
33.311
27.7281
21.0931
15.5522
13.3171
15.7199
22.412
31.3046
39.0515
42.5594
40.244
32.9187
23.4773
15.5637
12
13.544
18.8671
25.3334
30.2423
31.97
30.416
26.8428
23.1273
20.8264
20.5938
21.8946
23.4302
23.9029
22.8246
20.8907
19.5172
19.9133
22.1564
24.988
26.4524
25.1109
20.9795
15.4602
10.5278
7.65357
7.02783
7.79974
8.84128
9.52709
9.71202
9.64214
9.48138
9.2276
9.10409
9.70991
11.6413
14.8979
18.4393
20.3265
18.8738
14.0721
8.1929
5.20327
8.7024
19.8066
36.0737
52.4024
63.3787
66.1919
62.1608
55.9151
52.6523
54.9903
61.3654
67.0739
67.3126
60.3792
48.976
38.5594
34.0135
36.5213
42.9901
47.9015
46.7376
38.7385
27.2165
17.4089
13.1275
13.9994
15.325
10.8329
-2.7666
-21.4467
-32.3283
-16.7499
42.0953
149.733
293.665
443.805
561.192
612.375
583.06
484.349
348.247
214.369
114.283
61.0729
48.2483
57.1197
67.9537
68.9071
58.8067
44.0298
32.4705
28.4992
31.2621
36.3511
38.9764
36.8287
30.9213
24.5915
21.387
23.0374
28.4748
34.4748
37.731
36.339
30.7091
23.266
17.2088
15.1015
18.28
26.7263
39.0439
52.4348
62.885
66.4824
61.7845
51.889
44.3614
47.7056
65.5411
91.9836
112.066
108.4
71.0996
5.19866
-69.7274
-128.058
-150.699
-134.271
-91.6694
-43.9921
-8.9904
6.7899
8.42138
6.37771
8.76595
16.9543
26.6058
32.252
31.4492
25.8823
19.3854
15.2729
14.7698
17.3561
21.8313
27.1084
31.9349
34.6504
33.8578
29.6278
24.1716
21.0478
23.4611
31.7226
42.4889
50.5449
51.8878
46.2854
37.417
30.5787
29.5077
34.1995
41.1487
45.7782
45.1609
39.6349
32.4502
27.7496
28.6543
35.77
47.1562
59.1714
67.8433
70.3131
65.7854
55.9252
44.1712
34.3456
29.0375
28.6259
31.6605
36.0355
40.4153
44.6129
49.0347
53.4238
56.2354
55.2692
49.3008
39.2864
28.2425
19.6502
15.4168
14.8195
15.0322
13.2533
8.71961
3.22681
0.122479
-2e-006
-2.1e-005
-6.6e-005
-0.000126
-0.000173
-0.000174
-0.000119
-5.6e-005
-7.4e-005
-0.000239
-0.000517
-0.000758
-0.000774
-0.000503
-0.000118
2.7e-005
-0.000372
-0.001263
-0.002127
-0.002213
-0.001104
0.000711
0.001661
-0.000499
-0.007791
-0.014488
0.042553
0.117836
0.142774
0.032948
-0.241587
-0.550321
-0.65088
-0.336939
0.269944
0.708265
0.438306
-0.700097
-2.1227
-2.74497
-1.70986
0.73845
2.95024
2.74328
-0.92958
-6.50232
-9.78503
-5.84965
8.06165
30.1833
54.1123
71.3784
75.5009
65.2261
45.1889
23.4361
7.4181
0.709616
2.12433
7.49335
12.564
15.2839
16.0087
16.2301
16.952
17.9382
18.282
17.4122
15.7502
14.4385
14.4106
15.7984
17.9378
20.0991
22.0719
24.0966
26.4659
29.0129
31.2021
32.7256
34.125
36.6715
41.6184
49.2258
58.3181
66.7854
72.8175
75.7724
76.29
75.5073
74.2407
72.5938
70.2427
67.0645
63.368
59.8149
56.8566
54.4571
52.2797
50.0766
47.7391
45.1358
41.9919
37.9803
33.2777
28.9606
26.6142
27.1745
29.8116
31.7962
29.9677
23.152
13.6277
6.41638
6.45744
15.2101
29.1542
41.309
45.3265
39.4931
27.8416
17.6527
14.7472
19.8851
28.5921
34.4161
33.503
27.2154
20.7786
19.3517
24.2203
31.9358
37.0348
36.2144
30.9185
26.2515
27.4052
35.7812
47.8117
57.1599
58.8935
52.4125
41.5431
31.746
26.6498
26.2982
27.8363
28.0683
25.7715
22.2946
20.2244
21.3531
25.4986
30.6093
34.1046
34.3495
31.4668
26.9732
22.9076
20.6752
20.5059
21.5461
22.4568
22.0927
20.1624
17.3775
14.9471
13.9345
14.7086
16.7858
19.1503
20.7517
21.0601
20.3182
19.4193
19.554
21.7824
26.6074
33.7248
42.0166
49.7787
55.1584
56.7335
53.9568
47.3389
38.1922
28.4132
19.9735
14.3906
12.1615
12.7145
14.6154
16.097
15.8311
13.7749
11.2448
10.1086
11.4529
14.127
14.3415
7.26739
-9.54887
-32.0682
-47.7567
-37.8608
15.1052
117.492
256.913
402.154
512.553
553.893
513.352
405.756
267.299
139.779
53.2938
15.9027
15.0456
28.2833
36.471
32.0688
19.1637
7.16638
3.28197
8.39647
17.9587
25.8366
28.0936
24.4685
17.3669
10.017
4.82867
2.99668
4.60216
8.89773
14.5896
20.1947
24.6106
27.7572
30.502
34.1586
39.5626
46.3279
53.0014
57.9527
60.3503
60.6454
60.2486
60.5197
61.9625
64.0715
65.7093
66.0232
64.9803
63.305
61.837
61.0206
60.7521
60.6339
60.5149
60.7837
61.9198
63.8412
65.4237
64.6837
59.8038
50.405
38.2779
26.9769
20.1675
19.6347
24.1985
30.0571
32.6664
29.218
20.3282
9.8502
3.10758
4.24874
14.0746
29.4771
44.8217
54.5184
55.4049
47.9778
35.8732
23.8613
15.541
12.0468
12.1482
13.7332
15.2698
16.5395
18.1504
20.4234
22.6476
23.4938
22.2335
19.7774
18.5911
21.2682
28.4149
37.6492
44.4012
44.4868
36.6964
23.981
12.2104
7.03383
10.8534
21.6355
34.0102
42.1999
42.8627
36.3038
25.7918
15.4873
8.43701
5.74722
6.84999
10.3111
14.6948
18.7067
21.1594
20.9629
17.7447
12.3709
6.96765
4.26426
6.0937
12.0544
19.4705
24.735
25.4874
22.4142
19.0903
20.0475
27.9098
41.401
55.6447
64.8495
65.6218
59.028
49.9523
44.1547
44.6455
49.8635
54.6697
53.5052
43.8528
27.8523
11.184
-0.146167
-2.98196
1.66413
9.37195
15.0755
15.8222
11.9835
6.48982
2.59258
1.45332
1.05871
-2.6475
-12.5287
-26.0557
-32.9563
-16.8878
38.1051
138.314
272.861
413.141
521.205
564.412
529.751
430.178
299.168
175.873
88.7432
45.8077
36.0696
39.6893
40.2178
32.029
19.7623
11.897
13.7808
24.3933
37.8792
47.7978
50.592
46.548
38.3854
29.4483
22.4736
19.1829
20.2871
25.2903
32.3227
38.5604
41.4352
40.025
35.4886
30.4249
27.5619
28.2316
32.1404
38.1294
44.938
51.6499
57.5632
61.9842
64.3389
64.6404
63.834
63.5038
64.9301
68.1169
71.5688
73.1568
71.3886
66.3559
59.7166
53.5276
49.2325
47.0335
46.2488
45.9799
45.5601
44.3955
41.8904
37.5462
31.3839
24.3692
18.3034
14.8776
14.6617
16.7993
19.5694
21.7035
23.2031
25.1469
28.5547
33.1825
37.3427
38.9097
36.9188
32.496
28.3863
27.2972
30.221
35.8403
41.372
44.3219
44.0887
42.0497
40.4864
41.0694
43.7531
46.9039
48.3922
46.8128
42.284
36.3319
31.0293
27.9782
27.6224
29.1665
31.0507
31.8121
30.6475
27.7509
24.1224
20.913
18.8835
17.9569
17.479
16.6648
15.2806
13.7682
12.8986
13.3027
14.9266
16.7025
17.1793
15.3305
11.145
6.0618
2.77051
4.18961
11.7696
24.4842
38.8992
50.473
56.0306
55.6799
52.9438
52.4402
56.3549
62.4347
32.7191
27.7684
26.2714
26.4744
26.5498
25.4704
23.3024
20.7196
18.5526
17.4758
17.9026
19.8679
22.8819
25.9504
27.8923
27.9064
26.3249
24.5538
24.3811
26.8818
31.6
36.5512
39.2835
38.3806
34.3599
29.3975
26.0111
25.4581
27.0776
28.8383
28.8557
26.8628
24.3994
23.6819
25.9988
30.6249
35.1959
37.1937
35.6768
31.7947
27.9398
25.9679
25.9009
25.9768
24.0361
19.3237
13.4117
9.31813
9.66001
14.785
22.5129
29.3676
32.5919
31.6827
28.3452
25.16
23.8872
24.6311
26.2008
27.172
26.7872
25.1437
22.8054
20.4
18.3635
17.2161
17.7481
20.6908
26.0571
32.6578
38.3981
41.3938
41.2956
39.8829
40.3714
45.5997
56.2328
69.902
81.9556
87.66
84.4051
73.0101
57.396
42.7137
33.1442
30.2582
32.7212
37.2216
40.2725
39.6245
34.9427
27.7409
20.6101
16.1999
16.1734
20.2373
25.4762
26.4687
17.2972
-4.60061
-33.9603
-55.7452
-48.3959
7.53961
118.151
268.557
423.995
541.193
585.421
545.096
436.367
295.505
163.065
67.9995
19.2718
7.79487
15.5408
25.8415
29.6152
25.8351
17.9877
10.0419
4.34588
1.64002
1.77252
4.05966
7.30189
9.8463
10.1962
8.17062
5.17372
3.43404
4.65027
8.80463
14.2489
18.9823
21.9979
23.6147
24.899
26.5374
28.3323
29.7584
30.9492
33.1377
37.8914
45.8285
55.6783
64.7056
70.3839
72.1371
71.7857
72.1783
75.0224
79.5497
83.0501
82.949
78.9183
73.2265
69.1869
68.6829
70.5908
71.4249
67.8714
59.101
47.6037
37.8197
33.4004
35.1064
40.4007
45.101
45.8612
42.0079
35.7649
31.089
31.3694
37.4599
47.1105
55.961
59.5374
55.6434
45.4265
32.9261
22.9686
18.8373
20.6768
25.8734
30.7319
32.427
30.3808
26.1134
22.1937
20.9039
23.371
29.3847
37.5071
45.4433
50.6404
51.0834
46.2112
37.5528
28.3708
22.0753
20.5456
22.9883
26.4866
27.8051
25.4212
20.433
15.7707
14.3525
17.1396
22.6127
27.7129
29.5342
26.9734
21.2924
15.3025
11.9376
12.8749
17.7801
24.5212
30.2521
32.8243
31.7989
28.4198
24.8801
22.9879
23.3166
25.0934
27.0903
28.5601
30.0036
32.7132
37.8179
45.2698
53.7003
61.0162
65.4991
66.691
65.3277
62.7173
59.9378
57.4334
55.0595
52.4731
49.3679
45.3569
39.9011
32.5767
23.8877
-0
-2e-006
-1e-005
-2.4e-005
-3.6e-005
-3.8e-005
-2.4e-005
-4e-006
-1e-005
-6.2e-005
-0.000152
-0.000236
-0.000256
-0.000189
-8.8e-005
-6.6e-005
-0.000223
-0.000548
-0.000877
