4.79627e-006
1.39818e-006
-6.32677e-006
-1.36201e-005
-1.24414e-005
2.14461e-006
2.3829e-005
3.3253e-005
1.01089e-005
-4.34411e-005
-8.66544e-005
-5.72641e-005
7.0803e-005
0.000225055
0.000239655
-2.13874e-005
-0.000474119
-0.000731192
-0.000311458
0.000869529
0.00207925
0.00195965
-0.00041784
-0.00417255
-0.00620968
-0.00295224
0.00613398
0.0157343
0.0160571
-0.000222607
-0.0288902
-0.0507796
-0.040962
0.0107926
0.0813975
0.116553
0.0633089
-0.0805041
-0.236519
-0.273296
-0.0956564
0.252761
0.557913
0.536639
0.0461386
-0.727234
-1.26834
-1.00569
0.251339
1.99585
3.12821
2.56239
0.0487785
-3.342
-5.56073
-4.76612
-0.743587
4.42393
7.15784
4.51575
-3.50159
-13.0773
-18.1681
-14.1198
-1.33609
13.5208
20.2782
11.1557
-13.2219
-41.4863
-55.1368
-37.1774
18.282
100.694
185.501
243.884
255.396
217.232
145.419
67.308
9.20559
-14.6517
-6.55595
18.3623
41.3113
49.3343
40.3795
22.0544
5.69019
-0.453497
4.8695
16.4315
26.5304
29.7162
25.5333
18.0476
12.86
13.5819
19.7881
27.43
31.2676
27.8642
17.5218
4.20844
-6.39821
-9.69949
-4.39586
6.92484
19.0678
26.7141
26.886
20.2194
10.4825
2.65173
0.549746
5.2212
14.7864
25.7169
34.7494
40.3857
43.2473
45.2561
48.2751
53.0884
59.2896
66.0142
72.8837
80.4141
89.5284
100.479
111.965
121.198
125.119
122.193
113.712
103.703
97.2587
98.0493
106.362
118.805
129.977
135.265
133.284
126.593
120.263
119.057
124.796
135.369
145.956
151.783
150.867
145.243
139.964
140.437
149.496
165.744
183.953
197.242
199.851
189.196
166.346
135.018
99.8541
64.9601
33.3023
6.90494
-12.6702
-24.1395
-26.809
-21.1012
-8.76621
7.57308
25.4109
43.2941
61.0348
78.929
96.3802
110.835
117.918
113.048
93.8991
62.4337
25.2473
-8.27388
-29.3396
-33.1617
-20.7396
1.86322
26.3929
45.9987
57.7968
63.2509
66.3962
71.0477
78.5771
87.4115
94.3629
96.8521
94.6263
89.9281
86.0318
85.0528
86.3863
86.7828
82.1173
69.9059
51.1439
30.3663
13.7899
6.4484
9.79064
20.9718
34.1724
43.2352
44.285
37.1054
24.7717
11.9434
2.80338
-0.373023
2.45998
9.73846
19.2735
29.0269
37.4268
43.3411
46.0057
45.1058
40.9752
34.687
27.8287
21.9525
17.9407
15.6533
14.1298
12.3282
10.0507
8.4982
9.96564
16.5682
28.4558
42.4675
52.2938
50.7279
33.5785
3.66708
-27.302
-40.8013
-17.7107
53.1837
168.002
305.636
432.656
514.152
526.411
466.056
351.462
215.654
93.7538
10.4959
-26.8595
-27.678
-10.4832
6.86544
14.4896
12.3412
6.78418
4.76098
9.17357
17.8073
25.7302
29.0863
27.6815
24.8487
24.9482
30.3001
39.5366
48.3152
51.8081
47.3585
35.7399
20.4513
5.70811
-5.51601
-12.2649
-14.9635
-14.0794
-9.17091
0.975152
17.2373
38.9033
63.1928
85.9724
103.303
112.941
114.971
111.311
104.496
96.5273
88.3992
80.4055
72.8069
66.2587
61.648
59.4585
59.1488
59.0435
56.9163
51.0029
40.9099
27.9377
14.6555
3.94997
-2.01282
-2.49054
1.67679
8.42526
15.1631
19.588
20.4321
17.9531
13.9963
11.4984
13.4608
21.6661
35.633
52.3444
67.0429
74.9251
73.0923
61.8885
44.9521
27.8571
15.8907
11.9462
15.4827
23.0067
29.8093
32.1144
28.6337
20.8601
12.0628
5.56272
3.15896
4.44183
7.2529
8.99635
8.12353
5.06459
2.1626
2.6344
9.02815
21.8819
39.2118
57.1011
71.1705
78.3041
77.8719
71.9069
64.1774
58.6
57.7265
61.9502
69.6759
78.2138
84.8526
87.6075
85.4462
78.1586
66.2034
50.7401
33.7664
18.0524
6.60157
1.67334
3.77006
11.1639
20.3498
27.3458
29.2806
25.5155
17.7608
9.15972
2.83026
0.588975
2.42527
6.86384
11.9061
16.0147
18.6823
20.4119
22.2491
25.1824
29.7139
35.7581
42.8431
50.4575
58.3417
66.5628
75.3228
84.5902
93.7695
101.647
106.74
107.933
105.072
99.1154
91.6553
84.0173
76.4998
68.3184
58.4182
46.6765
34.5844
24.6617
18.6659
15.6752
11.6471
1.52773
-16.5165
-36.89
-45.3186
-22.5871
47.1754
166.947
320.847
475.711
590.909
632.99
588.9
471.659
315.62
163.256
49.3885
-10.19
-21.1215
-3.80801
18.2109
28.8651
24.4661
11.6928
1.01439
-0.224706
8.56006
22.064
33.0807
36.8255
33.1858
26.0962
20.9438
21.7512
29.5749
42.5524
57.0832
69.2739
76.0353
75.7063
68.3653
55.9194
41.8366
30.3181
24.9614
27.3854
36.5227
49.0757
61.0348
69.5243
74.0029
76.1896
78.814
83.9525
91.8991
101.125
109.199
114.007
114.545
110.967
104.082
94.8073
83.9505
72.3442
61.0005
50.977
42.9304
36.6963
31.327
25.7405
19.6576
14.1832
11.5035
13.7018
21.3208
32.5799
43.8641
51.361
52.9847
49.4674
43.924
40.0749
40.1261
43.5443
47.4585
48.4549
44.6913
37.0486
28.6087
22.766
21.1296
22.5329
23.8187
21.9798
16.3539
9.45392
5.75812
9.00481
19.5121
33.1912
43.0873
42.8897
30.6638
10.7566
-7.35582
-12.9733
0.935219
34.2153
79.145
123.432
155.189
167.569
160.954
141.899
119.568
101.562
91.122
86.796
84.3578
79.6718
70.9324
59.2601
47.6408
39.0581
34.9514
34.7607
36.5861
38.3695
38.821
37.6214
34.9763
31.013
25.5485
18.4337
10.2183
2.60353
-1.7732
-0.287826
8.38075
23.2777
41.0793
57.0432
66.6666
67.3692
59.4845
46.1275
31.9817
21.4976
17.246
19.104
24.603
30.2646
33.3031
32.8921
30.3859
28.3959
29.2085
33.4013
39.4349
44.483
46.0722
43.6115
38.9145
35.3547
36.0726
42.2148
52.1942
62.4031
68.9935
69.7503
65.0565
57.4903
50.3744
46.1508
45.4721
47.4033
50.454
53.7043
57.3287
62.263
69.3278
78.4341
88.3985
97.4731
104.236
108.285
110.33
111.675
113.455
116.106
119.362
122.706
125.903
129.219
133.125
137.708
142.179
144.905
144.057
138.558
128.8
116.628
104.516
94.3035
86.1947
78.6503
69.3261
56.6403
41.1263
25.7627
14.9621
12.6107
20.1009
35.3751
53.5354
68.7963
76.8736
76.6634
70.4217
62.3985
56.6462
55.103
56.8694
58.9611
58.0736
52.423
42.7448
32.0192
24.1385
22.2307
27.4352
38.6171
52.9943
67.2383
78.4923
84.9441
85.9247
81.7557
73.5891
63.3027
53.3089
46.0796
43.3674
45.3991
50.5089
55.5846
57.3028
53.6376
44.8581
33.4032
22.6122
14.9865
11.0204
9.37833
8.37905
7.82447
9.78912
17.4514
32.2742
51.1647
65.7881
65.4303
42.8763
0.668799
-45.8974
-71.7545
-50.9956
31.5014
171.048
341.486
502.582
613.926
649.502
606.588
505.214
378.822
260.774
172.874
120.564
95.7679
84.6345
75.5511
63.5408
49.7645
37.7031
29.0756
22.0657
12.5452
-2.98063
-24.8661
-49.8509
-72.7455
-89.0589
-96.9293
-97.3687
-92.9927
-86.2997
-78.6477
-70.4152
-61.9368
-54.3029
-49.3001
-48.4622
-51.893
-57.7312
-62.7262
-63.6641
-58.8225
-48.6085
-35.0605
-20.6021
-6.87477
5.64932
17.1486
27.5328
35.885
40.7426
41.0681
37.2345
31.2827
26.1642
24.3477
26.6062
31.7041
37.151
40.5372
40.6499
37.7783
33.1817
28.2123
23.7215
20.0566
17.4615
16.3957
17.4069
20.6228
25.3199
30.048
33.3904
34.8996
35.4943
36.8747
40.1909
44.8209
48.2083
47.124
39.7703
27.4486
14.5888
6.82581
8.02535
17.94
31.9751
43.4059
46.9442
41.6793
31.6786
23.8138
23.9662
33.7107
49.3322
63.7254
70.1215
65.5975
52.4967
37.0754
26.1934
23.8408
29.2608
37.4863
41.8493
37.1193
21.7935
-1.36512
-26.551
-47.1793
-58.183
-57.5145
-46.4615
-28.8536
-9.56927
7.09556
18.6552
24.8803
27.3655
28.4522
30.0081
32.6267
35.6125
37.7114
38.1475
37.3407
36.8561
38.5717
43.5285
51.1463
59.3178
65.4077
67.6553
66.2191
63.2669
62.0187
65.2205
73.8365
86.6308
100.838
113.549
123.087
129.682
135.15
141.81
151.227
163.45
177.062
189.975
200.459
207.832
212.414
214.793
214.821
211.004
200.757
181.587
152.707
116.236
77.1996
42.0618
16.3046
2.18921
-2.09001
-1.27183
-0.397868
-2.10966
-5.49725
-7.32802
-5.02918
0.489767
4.33261
0.428887
-13.4149
-31.1246
-37.8656
-15.0314
50.69
158.319
288.619
408.241
481.229
483.207
411.81
288.286
149.275
32.4182
-37.663
-56.8915
-39.9518
-10.9478
8.42914
7.57338
-10.9358
-35.6083
-53.4799
-56.5406
-44.2701
-21.9125
3.63543
27.6175
48.9537
69.2362
90.3778
112.612
133.986
151.382
162.177
165.445
162.054
153.822
142.421
128.771
113.248
96.4369
79.8192
65.8442
57.2373
55.8682
61.7794
72.9149
85.738
96.4964
102.585
103.427
100.508
96.5828
94.4118
95.5669
99.7984
105.198
109.053
108.994
103.946
94.4865
82.5147
70.4407
60.2931
53.1365
48.9852
47.1277
46.5907
46.4605
45.9503
44.3119
40.8165
34.9637
26.8683
17.5607
8.87821
2.80817
0.481676
1.31798
2.86948
1.63394
-5.40303
-19.1846
-37.7714
-56.7965
-71.0583
-76.5297
-71.8338
-58.5191
-40.1049
-20.4964
-2.63092
12.0271
23.0925
30.446
33.6464
31.9402
24.7597
12.2548
-4.56704
-24.1609
-44.9039
-65.2621
-83.5103
-97.3127
-103.742
-100.125
-85.5317
-62.081
-35.1086
-11.6881
2.05603
3.59125
-4.8407
-17.2538
-26.7399
-28.6636
-22.5765
-11.8997
-1.65425
4.42152
5.75772
4.87437
5.52684
10.2464
18.7052
27.7728
33.1255
31.4326
21.9196
6.57186
-10.9553
-26.9882
-39.1418
-46.7095
-50.1478
-50.1408
-46.862
-39.8317
-28.3892
-12.4686
6.76218
26.7564
44.079
55.4132
58.7431
54.2507
44.5046
33.7408
26.413
25.5601
31.7106
42.8587
55.5446
66.486
73.8921
77.7594
79.0568
78.3988
75.1474
67.6199
54.3546
35.6378
14.2363
-5.29676
-18.5011
-23.0571
-19.8213
-12.233
-4.43895
0.771763
3.05067
4.05635
5.8993
9.50476
13.9092
16.8678
16.3264
11.8106
4.88611
-1.56805
-4.83474
-3.75295
0.708295
5.96311
9.11611
8.40933
4.13034
-1.42128
-4.89014
-3.33377
4.42795
17.1873
31.7714
44.3869
52.313
55.1428
54.92
55.0305
58.3575
65.6532
75.036
82.961
86.2009
83.767
77.6656
71.9811
70.6999
75.4234
84.2295
92.3589
94.4311
87.0757
70.6418
49.1392
28.4747
13.8851
7.80696
9.1233
14.0108
17.8615
17.338
11.6783
2.78785
-5.79561
-10.5461
-9.50014
-3.09449
6.04217
14.2699
18.6155
18.2144
14.8102
11.9774
13.3411
20.6398
32.6789
45.8579
56.138
61.4487
63.1433
65.492
73.2489
88.4845
108.469
126.011
132.407
121.717
94.1976
57.0234
21.6968
-0.73961
-4.43029
8.90891
31.0865
51.4317
61.7131
59.6157
49.2038
38.3211
34.3604
40.5455
54.5028
69.6946
78.8676
77.7279
67.0249
52.0795
40.0769
36.5256
42.6413
54.8967
66.8728
72.413
68.4927
56.4338
40.9895
27.9027
21.2458
21.848
27.4485
34.2826
39.1237
40.7029
39.905
38.877
39.7421
43.6996
50.9151
61.0422
73.8202
89.2095
106.904
125.564
142.39
153.561
155.564
146.892
129.222
107.332
87.5557
75.3218
72.8956
78.4627
87.1409
93.549
94.674
91.4654
88.096
89.0351
95.408
102.834
102.499
85.6583
49.7686
3.04607
-35.5865
-42.3377
1.53015
99.847
236.559
378.719
487.056
530.141
496.205
397.485
265.171
137.225
44.3824
0.227346
-0.91738
21.7549
45.7698
55.1589
45.6979
24.0797
2.43248
-8.54504
-4.47567
11.6599
32.1238
48.7892
56.9073
56.5988
51.7633
47.3841
46.8094
50.342
55.6102
59.2431
58.7993
53.9411
46.3854
38.8664
33.8115
32.456
34.7375
39.8056
46.6566
54.4429
62.3438
69.2624
73.7735
74.5624
71.1996
64.7677
57.8265
53.5447
54.3238
60.5969
70.4575
80.3544
86.5281
86.4826
79.812
68.0942
54.0702
40.6391
30.1534
24.171
23.4744
28.0478
36.8763
47.7472
57.4223
62.4297
60.3328
50.9274
36.6839
22.038
11.7104
8.78273
13.441
22.9965
33.1642
39.9646
41.3482
37.8381
32.0088
27.1627
25.8624
28.9314
35.2374
42.2253
46.9281
47.0931
42.0782
33.2391
23.6291
17.0114
16.4364
22.8895
34.6102
47.5009
56.5921
58.01
50.5807
36.3097
19.4956
4.89339
-4.1907
-6.99377
-5.15059
-1.52408
1.29198
2.03179
0.948599
-0.7772
-1.94038
-1.98298
-1.1338
-0.0704429
0.586838
0.616716
0.214823
-0.24057
-0.467705
-0.419184
-0.226878
-0.0425312
0.0839533
0.201853
0.35673
0.492839
0.460539
0.141115
-0.403056
-0.887376
-0.946881
-0.401944
0.528829
1.25423
1.12947
-0.0834874
-1.91432
-3.30888
-3.21108
-1.31456
1.49936
3.42778
2.72266
-1.0917
-6.4947
-10.3119
-9.13618
-1.17555
12.4817
27.9843
40.299
45.5058
42.6109
33.9091
23.7255
16.2598
13.7183
15.6699
19.7854
23.3238
24.4115
22.4903
17.995
11.8317
5.19891
-0.240693
-2.38029
0.525556
8.30638
17.5254
21.7482
14.2818
-7.26944
-36.9001
-59.4103
-54.6495
-5.97313
90.583
221.087
355.858
459.046
501.925
474.024
386.955
269.171
154.211
67.9817
20.7558
6.8806
11.2262
18.2888
19.1744
13.517
6.48736
3.59651
6.68255
13.1679
18.3993
19.0727
15.3883
10.6849
9.02818
12.4609
19.678
26.8676
30.0759
27.5846
20.8787
13.7124
9.90914
11.2179
16.4315
22.2006
25.0295
23.3358
18.481
14.2585
15.1168
23.9951
40.7923
62.153
82.6373
96.7388
100.89
94.6523
80.6727
63.5257
47.9715
37.3503
32.6903
32.7667
34.9559
36.4576
35.387
31.368
25.4912
19.7347
16.1094
15.8466
18.9086
23.9887
29.006
31.9203
31.5586
28.1105
23.0589
18.5439
16.4208
17.4354
20.9111
25.1142
28.1371
28.8815
27.6605
26.1129
26.4496
30.3659
38.115
48.171
57.6548
63.3708
63.0431
56.2502
44.6671
31.493
20.2741
13.5886
12.1456
14.6923
18.7783
22.024
23.2769
23.0664
23.1051
25.0885
29.458
34.8654
38.7393
38.7396
34.3345
27.5602
22.3855
22.8379
30.788
44.5919
59.4575
69.5391
70.8209
63.3353
51.4932
42.2127
41.6619
52.1962
71.0353
91.3881
105.508
108.191
99.0279
82.3618
65.1017
53.5689
50.958
56.5376
66.7267
77.2111
84.8518
88.4561
88.2792
84.8981
78.3755
68.2995
54.5862
38.3622
22.1608
9.12993
1.6373
0.117251
2.91075
7.25853
10.8837
13.2116
15.4788
19.6632
26.9038
36.4115
45.5837
51.3074
51.6926
47.1937
40.4076
34.6072
31.8177
31.5408
30.9005
26.2076
15.1384
-1.65012
-20.3994
-35.7908
-43.4388
-42.0826
-34.315
-25.3898
-20.6274
-22.6968
-30.1811
-38.2281
-41.0297
-34.9014
-20.3689
-2.1491
13.0067
19.5097
15.5243
3.63756
-10.6686
-21.8535
-26.9228
-26.4732
-23.7717
-22.5474
-24.8153
-29.9071
-35.1091
-37.3728
-35.0308
-28.5673
-20.142
-12.3051
-6.74334
-3.75059
-2.58384
-2.30242
-2.45179
-3.15551
-4.65238
-6.72724
-8.55897
-9.20133
-8.42934
-7.35197
-8.24868
-13.5255
-24.2538
-39.102
-54.3618
-65.2305
-67.8293
-60.9907
-46.9037
-30.2478
-16.1985
-8.24932
-6.87548
-9.6328
-12.573
-12.2351
-7.243
1.20628
10.1098
16.2259
17.653
14.6899
9.63453
5.68691
5.51245
10.1301
18.593
28.539
37.2947
42.9868
45.1596
44.6671
42.9811
41.336
40.1866
39.2542
38.0868
36.757
36.2282
38.0953
43.769
53.5094
65.8543
77.8273
85.94
87.5937
82.2617
71.8949
60.3215
51.8546
49.6738
54.6579
65.1603
77.8187
89.0359
96.462
99.799
100.559
100.931
102.365
104.695
106.298
105.255
100.796
94.0855
87.7281
84.1335
83.7083
84.096
81.1784
71.4492
54.3592
33.013
12.48
-3.45156
-14.9609
-26.1525
-41.5804
-60.9298
-75.1785
-67.4614
-19.6311
77.8352
217.492
373.145
506.844
582.454
579.913
503.478
379.902
247.35
140.341
77.7131
58.7182
67.9748
85.6171
96.9436
97.027
89.157
79.4891
71.8864
65.9977
59.0281
49.2026
38.1107
30.238
30.1188
39.1792
54.474
70.1754
80.8388
84.3698
82.8947
81.1303
83.3838
91.0485
102.003
112.071
117.5
116.95
111.958
105.838
101.821
101.539
104.554
108.977
112.628
114.076
113.082
110.386
107.109
104.158
101.909
100.291
99.1167
98.4403
98.6608
100.255
103.255
106.798
109.156
108.428
103.667
95.8595
88.0302
84.1355
87.0686
96.7335
109.309
118.346
117.391
102.958
76.384
43.5654
12.6942
-8.93288
-17.5056
-13.5853
-1.12378
14.6144
29.0684
39.4672
44.8233
45.302
41.6206
34.8452
26.478
18.4425
12.6757
10.4113
11.5814
14.7929
18.0114
19.6272
19.2992
18.0829
17.7626
19.7842
24.3951
30.4539
35.96
38.9625
38.3576
34.2262
27.6764
20.4009
14.216
10.7178
11.0265
15.5347
23.6695
33.8309
43.7138
51.071
54.687
55.0905
54.5315
56.0599
62.026
72.7149
85.8666
97.4461
103.391
101.516
92.6312
80.2824
69.2433
63.5036
64.7273
71.8523
81.8712
91.2401
97.1461
98.0959
93.783
84.6096
71.3275
55.0217
37.2908
20.2746
6.27616
-2.95381
-6.90037
-6.51239
-3.78655
-0.89516
0.688637
0.627187
-0.452666
-1.55741
-1.96301
-1.54359
-0.682898
0.0816324
0.409985
0.299392
-0.0156232
-0.274984
-0.350246
-0.261853
-0.0920473
0.103453
0.308222
0.490901
0.5607
0.402901
-0.0116929
-0.532733
-0.857833
-0.71073
-0.0745383
0.69468
1.00715
0.404859
-1.05595
-2.68727
-3.47967
-2.73494
-0.657072
1.52478
2.1075
-0.062103
-4.64626
-9.5676
-11.7322
-8.44877
1.18249
15.69
31.8159
45.9648
55.7119
60.5505
61.5397
60.2121
57.5418
53.6907
48.663
43.3198
39.8838
41.3537
49.9867
65.7191
85.5946
104.771
118.747
125.649
127.251
128.045
132.742
143.52
158.552
172.71
180.156
177.515
165.927
150.837
139.521
137.534
145.815
159.919
171.771
173.144
159.212
130.578
92.9001
54.4689
22.9627
2.91569
-5.09932
-3.5259
4.04891
14.5329
25.9246
36.8389
45.6415
50.071
47.8174
37.7778
21.1315
1.36191
-17.0467
-30.6477
-38.6449
-43.0429
-47.1154
-53.0327
-60.1387
-65.1464
-64.4409
-57.2972
-47.9605
-44.7968
-56.1628
-84.5901
-122.3
-151.035
-147.474
-92.7932
17.5282
168.332
327.064
453.692
514.675
495.281
404.939
273.325
138.874
34.7506
-21.8106
-32.7278
-14.3792
11.9413
29.5932
32.0488
22.6569
10.0559
2.37961
3.33217
11.5977
23.0083
33.5732
41.4583
47.0638
51.6684
55.8827
59.022
59.7052
57.1281
52.0695
46.955
44.9506
48.6409
59.0196
75.2413
95.1008
115.848
134.897
150.219
160.465
165.037
164.2
159.177
152.021
145.133
140.505
138.995
139.988
141.653
141.695
138.251
130.503
118.775
104.136
87.8277
70.865
53.9883
37.9079
23.5583
12.0922
4.53369
1.27482
1.7464
4.52772
7.89912
10.5536
12.0557
12.7677
13.2891
13.7787
13.6347
11.8128
7.65795
1.76048
-3.74788
-5.77358
-1.54148
10.039
27.6519
47.9322
66.7797
80.9955
89.4347
93.1319
94.4075
95.4918
97.4167
99.7183
101.01
100.008
96.3973
91.0879
85.8183
82.4137
82.1499
85.4982
92.2309
101.64
112.629
123.648
132.681
137.546
136.599
129.6
118.243
105.916
96.5955
93.2479
96.4662
104.005
111.497
114.072
108.166
92.7862
69.7694
43.1047
17.7359
-1.62778
-11.3708
-9.47877
4.14768
27.4719
56.3108
84.8241
106.714
116.994
113.736
98.9813
78.2129
58.4079
45.4266
41.9109
46.6716
55.8034
64.8697
70.9616
73.5886
74.107
74.2756
74.9972
76.0567
76.8867
77.6058
79.3359
83.3138
89.2456
94.0894
92.4321
78.7672
50.7513
11.6725
-29.5045
-61.0195
-73.0557
-62.1379
-32.9661
3.38068
34.1632
50.4483
50.7458
41.1181
31.7786
31.8764
44.9872
67.4215
90.049
102.656
98.7032
78.2595
47.8599
17.5047
-3.66885
-11.0164
-5.74637
6.41035
18.3932
25.2559
26.2596
24.7428
25.9659
34.0423
49.4399
68.2356
83.4957
88.198
78.4202
55.3725
25.3269
-2.60857
-19.9848
-22.3112
-10.751
8.51451
26.9609
37.2496
36.07
25.1078
9.83764
-3.16326
-9.06154
-6.48318
2.55128
14.2146
25.0131
33.3313
39.648
45.4615
51.6701
57.4405
60.3063
57.5293
47.995
33.5257
18.7185
9.17948
8.95069
18.4884
34.3758
51.0547
63.6797
70.4347
72.8325
73.6819
73.948
70.718
58.1687
31.7685
-6.23092
-43.3713
-58.5906
-29.5107
57.085
196.378
363.052
517.493
618.873
639.898
576.902
450.907
299.317
162.005
67.825
26.8721
30.8275
59.9797
92.9114
114.43
118.977
109.322
92.4668
75.3739
62.4526
55.2482
53.5349
56.5462
63.4704
73.1437
83.5163
91.5837
94.0964
88.7923
75.5244
56.6762
36.616
20.4012
12.253
14.3571
26.3575
45.6287
68.1783
89.8852
107.712
120.525
129.219
136.048
143.355
152.239
161.814
169.542
172.616
169.732
162.268
154.053
149.6
151.582
158.88
166.409
167.073
155.063
128.915
92.7308
54.8248
24.372
7.61565
5.44718
13.4478
24.2542
30.9924
30.1022
22.3122
11.5394
2.51073
-1.58167
-0.279842
4.4678
9.72576
13.1721
14.0382
13.0417
11.5626
10.6777
10.6301
10.9565
11.0613
10.7804
10.535
10.974
12.3513
14.0648
14.7049
12.6705
7.07699
-1.52108
-11.0211
-18.4335
-21.0941
-17.9064
-10.0146
-0.507753
6.82265
9.19233
6.22616
0.332421
-4.25219
-3.41566
4.7563
18.8266
34.4466
46.2986
50.6533
47.2586
39.5385
32.9147
32.056
38.4658
49.6833
60.5401
65.814
62.8705
52.9008
40.1448
29.5987
24.5087
25.0115
28.5727
31.8331
32.7002
31.4594
30.3213
31.7777
36.8252
44.1571
50.8139
53.9122
52.4405
48.0756
44.5191
45.6583
53.4757
66.7599
81.278
91.384
92.3902
82.6981
64.7737
44.4957
29.0423
24.0759
31.3419
47.7389
66.403
79.503
81.5943
71.9613
54.6944
36.3077
22.0406
12.901
5.36356
-5.67819
-22.028
-38.1689
-40.9734
-14.3559
52.5933
157.763
282.794
397.046
467.948
473.571
411.782
301.579
175.754
68.1131
0.978711
-21.5494
-12.0517
8.56055
21.6629
18.6541
2.61258
-15.9891
-26.4745
-23.9856
-11.4222
3.1089
11.346
9.38626
-0.69584
-12.6461
-19.8897
-19.1796
-12.1548
-4.24459
-1.77792
-8.91961
-25.8898
-49.0663
-72.5981
-90.5845
-98.8822
-96.0256
-83.2395
-63.8089
-42.1014
-22.4521
-8.07638
-0.242479
2.00976
1.40544
1.30843
4.36093
11.4988
21.8068
33.2455
43.8019
52.3945
59.043
64.295
68.3752
70.6839
70.0164
65.3755
56.841
45.904
35.0124
26.5717
21.9796
21.2337
23.2772
26.7976
30.9563
35.6392
41.1811
47.8612
55.5756
63.8994
72.4261
81.0415
89.836
98.6381
106.471
111.37
110.829
102.796
86.7596
64.3885
39.3619
16.4134
-0.0163147
-6.97801
-3.64638
8.74487
27.5062
49.3268
71.0536
90.2485
105.475
116.327
123.239
127.113
128.876
129.107
127.898
124.996
120.148
113.458
105.537
97.3748
90.0023
84.1421
80.0185
77.3737
75.6119
73.9593
71.5962
67.8151
62.2754
55.3154
48.1311
42.5766
40.4928
42.7753
48.6617
55.7347
60.8151
61.41
56.9888
49.3585
41.8553
37.7284
38.5651
43.606
50.2962
55.7157
58.0551
57.3296
55.0268
53.0359
52.5875
53.8332
56.1983
59.0971
62.3776
66.1047
69.8301
71.9634
69.9094
61.1997
45.1568
24.1222
3.31751
-10.9484
-14.0631
-5.50698
10.5336
26.9238
37.0195
38.0363
32.4126
26.1757
24.9942
30.1208
36.8411
36.9115
24.2367
0.853516
-20.5011
-19.6751
22.274
112.757
240.836
378.008
487.266
536.956
513.342
426.081
304.038
183.453
93.9562
48.7005
42.498
57.8047
74.7481
80.0181
70.7807
52.824
35.1136
24.2805
21.8315
24.8143
28.647
29.9617
27.8751
23.4619
18.3716
13.8072
10.4616
9.08635
10.86
16.9619
27.5082
40.6587
52.7514
59.6939
58.9653
51.0694
39.5026
29.1391
23.8725
24.7957
29.883
35.2696
37.346
34.5121
27.7369
19.8105
13.8667
12.0143
14.6729
20.704
28.0244
34.3088
37.5722
36.6441
31.5893
23.9612
16.6093
12.8091
14.8448
22.6327
33.2101
41.6439
43.1995
35.82
21.5989
6.30109
-3.04404
-1.37452
11.983
32.9931
54.8964
71.4675
79.8341
81.4018
80.4841
81.4914
86.2733
93.0525
97.4465
94.9156
83.2487
63.7746
40.7618
19.4699
3.96308
-4.21526
-6.00655
-3.72147
0.356775
4.85832
9.36169
13.8158
17.9306
21.0472
22.5918
22.7657
22.9093
25.1508
31.4011
42.2069
56.1446
70.2007
81.0551
86.6523
87.2324
85.2321
84.0592
86.3593
92.6951
101.35
109.362
114.202
115.174
113.747
112.653
114.269
119.202
125.852
131.161
132.106
127.108
116.66
102.953
88.8617
76.9004
68.664
64.8272
65.4166
69.9616
77.3568
85.6302
92.0133
93.5819
88.3403
76.2269
59.4159
41.5988
26.4899
16.2821
10.8688
8.26164
5.98321
2.66601
-1.02623
-2.66141
0.665724
10.7165
27.0304
46.9267
66.534
82.2797
92.0964
95.8286
94.7883
90.821
85.415
79.2557
72.3292
64.3987
55.5425
46.4815
38.5596
33.3849
32.2573
35.5764
42.4647
50.8156
57.8532
61.0709
59.1816
52.6115
43.2204
33.3176
24.4709
16.8112
9.3205
1.02064
-7.63348
-14.1171
-14.5817
-5.80894
12.63
37.3265
61.9477
79.8973
87.4445
85.6268
79.7834
76.8406
81.7375
94.9128
112.211
127.22
134.685
133.062
124.826
114.478
105.565
98.5309
90.6849
78.2075
58.8946
33.8982
7.3934
-15.5812
-31.7139
-40.7996
-45.0869
-47.1429
-47.818
-45.882
-39.7744
-30.3307
-22.3509
-23.2226
-38.4948
-66.4369
-94.9019
-103.28
-69.9689
17.3078
153.113
312.462
457.463
550.353
567.53
508.391
394.97
262.657
146.323
68.1306
32.0664
26.6994
33.6943
37.2903
30.2781
14.5031
-3.00495
-15.2408
-18.7778
-14.3221
-4.9344
6.27555
17.4078
27.5853
36.0734
41.81
43.8819
42.54
39.7886
38.8209
42.4182
51.2506
63.2125
74.3458
80.9214
81.5174
77.9085
74.2666
75.1234
83.1921
98.138
116.805
134.635
147.506
153.156
151.718
145.35
137.258
130.539
127.19
127.547
130.304
133.143
133.798
131.137
125.743
119.599
114.948
112.864
112.409
110.986
105.882
96.1803
83.8509
73.162
68.4819
71.5986
80.1582
88.3391
89.6372
80.3236
61.5932
39.0568
19.7452
8.29883
4.57844
4.13427
1.26602
-7.18516
-19.6501
-30.6343
-34.0812
-27.3044
-13.1455
0.94017
6.37945
-2.36417
-25.1719
-56.4179
-87.5891
-110.897
-122.156
-121.84
-114.227
-105.313
-100.431
-102.359
-110.418
-120.789
-128.042
-127.46
-117.327
-100.12
-81.7921
-69.2193
-66.859
-74.3078
-86.1327
-94.2237
-91.5399
-75.3346
-48.2262
-16.6924
12.0362
32.9358
44.5456
48.343
46.928
42.334
35.4397
26.5559
16.4536
6.88926
0.154468
-2.07004
0.246077
5.2929
10.2667
12.7725
11.9623
8.77649
5.21676
3.15227
3.38573
5.48114
8.34916
11.132
13.799
17.1049
21.9985
28.9082
37.3738
46.2377
54.2338
60.5746
65.1631
68.3322
70.3307
70.9417
69.5302
65.5383
59.1552
51.7567
45.8036
44.1488
48.987
60.8569
78.1049
97.0631
112.95
121.246
119.116
106.392
85.7225
61.8063
39.915
24.2598
16.8138
17.0362
22.5484
30.3897
38.2405
45.0691
50.9955
56.5781
62.0023
66.6321
69.1342
68.0519
62.4954
52.6236
39.761
26.1834
14.6931
8.06733
8.39704
16.3606
30.6153
47.6487
62.4244
69.8847
66.9004
53.8458
34.9281
16.8478
6.17076
6.52765
16.9961
32.539
46.3727
53.1302
51.2389
43.3247
34.4994
29.5082
30.2973
35.2731
40.5493
42.3784
39.349
33.1339
27.4346
25.7864
29.4881
36.8096
43.899
46.886
44.0395
36.8044
29.1068
25.2061
27.1671
33.345
38.9316
38.6679
30.6653
19.4111
16.0051
34.6798
86.4271
172.305
279.77
384.552
458.226
478.866
440.185
354.832
249.867
156.081
95.8353
74.9177
82.0426
95.9168
96.189
72.8959
30.0635
-17.7259
-53.4548
-66.042
-54.8489
-28.5781
0.168501
21.3755
31.7367
34.6682
36.8148
43.3915
55.0005
67.4553
74.3853
70.9773
56.812
36.4284
17.5047
7.68709
11.5917
29.2388
56.4049
86.5284
113.248
132.553
143.799
149.363
153.188
158.858
167.949
179.297
189.463
194.187
190.236
176.864
156.271
132.898
111.91
97.5553
92.041
95.2618
105.235
118.84
132.461
142.403
145.239
138.322
120.526
92.9604
59.2122
24.7571
-4.44551
-23.7196
-31.1013
-27.8317
-17.7174
-5.64512
4.13694
9.32389
10.0212
8.29598
7.05214
8.67469
13.9448
21.6462
29.0571
33.1881
32.2776
26.8547
19.7795
15.0976
16.1431
23.7807
35.7112
47.2956
53.5875
51.6153
41.7824
27.6851
14.4506
6.44405
5.47824
10.346
17.7828
24.2482
27.573
27.6919
26.2335
25.3431
26.4515
29.6325
33.7965
37.4869
39.7484
40.5537
40.5825
40.5441
40.5099
39.7061
36.9372
31.4149
23.4941
14.8343
7.81056
4.43192
5.33868
9.43929
14.4172
17.856
18.3818
16.2098
12.8224
10.008
8.84614
9.23902
10.2354
10.8954
11.1024
11.7583
14.1903
19.1139
25.8204
32.1684
35.4976
34.018
27.8949
19.3827
11.8763
8.36632
10.1229
16.2953
24.5772
32.4871
38.5053
42.4716
45.1556
47.4298
49.6628
51.7165
53.4394
55.1727
57.7708
62.0192
67.8255
73.8114
77.7435
77.6901
73.2519
66.0574
59.0818
55.0611
54.8822
56.9388
57.9416
54.8253
46.7059
35.7338
26.2651
22.715
27.2379
38.5222
52.4025
63.9848
70.1183
70.8315
68.9144
67.8841
69.5169
72.4315
72.6506
65.9412
50.6534
29.3822
8.34475
-5.36881
-7.24511
2.43382
18.9131
35.6753
47.9141
54.6016
57.7978
59.6544
59.2682
51.9922
32.4942
0.375145
-35.0393
-54.5129
-35.0897
39.1299
166.602
324.116
472.111
568.336
584.182
516.239
387.587
238.163
108.749
26.0019
-5.01244
1.67783
22.9299
38.3005
38.0229
24.2568
6.48892
-5.37136
-6.2853
2.45155
15.3331
26.3434
31.9377
31.9977
28.8676
25.5322
24.1062
25.2644
28.5545
33.1248
38.3724
44.2392
51.1158
59.4643
69.3396
80.0312
90.0483
97.5676
101.236
100.956
98.1636
95.3127
94.6742
97.0473
101.12
103.941
102.375
94.7924
82.0943
67.4601
54.9208
47.5036
45.9246
48.4847
52.1491
54.1537
53.2502
49.9721
45.9123
42.5574
40.4263
38.9992
37.3886
35.2225
33.0864
32.1699
33.3099
36.0664
38.5131
38.0264
32.7197
22.7039
10.3593
-0.657086
-7.18983
-8.13765
-4.84232
-0.0478616
3.94023
6.70972
9.79914
15.2043
23.2223
31.0868
33.5173
25.2045
4.00866
-26.9752
-59.8797
-85.1195
-95.6218
-90.0583
-73.3483
-54.1284
-40.5137
-36.3714
-40.0027
-45.7619
-47.5457
-42.1386
-30.6269
-17.2936
-6.85615
-1.76599
-1.10594
-1.57166
0.221863
5.57596
12.9517
18.9632
20.4185
16.1551
7.65065
-1.8188
-8.85724
-11.461
-9.602
-4.75981
1.11546
6.51878
10.7415
13.6807
15.4669
16.276
16.4194
16.5081
17.4094
19.9012
24.2273
29.9015
35.9684
41.5932
46.5721
51.3654
56.5808
62.2601
67.5323
71.0059
71.7717
70.4036
69.2203
71.4441
79.5507
93.6584
110.881
126.107
133.912
130.733
116.28
93.6231
68.0073
45.0227
28.9142
21.5877
22.4652
29.0098
37.6063
44.5265
46.792
42.7908
32.5148
17.3428
-0.560616
-18.9818
-36.1977
-51.0939
-62.8983
-70.8256
-73.9896
-71.7475
-64.2972
-53.0994
-40.727
-30.0624
-23.1872
-20.5449
-20.8519
-21.8217
-21.3158
-18.3034
-13.1564
-7.20789
-1.9167
1.84954
4.05122
5.21311
5.93964
6.56278
7.11167
7.5353
7.9455
8.67695
10.1343
12.5663
15.9454
20.0262
24.4981
29.0763
33.4478
37.1336
39.4438
39.656
37.3857
32.9365
27.3715
22.1878
18.7193
17.5893
18.5269
20.6573
23.082
25.3882
27.7667
30.6705
34.2464
37.9287
40.5032
40.6665
37.8002
32.5181
26.6405
22.5358
22.1052
25.8836
32.7003
40.0935
45.3251
46.5662
43.729
38.5675
33.9798
32.8032
36.6244
45.1324
56.2978
67.2813
75.6224
80.1336
81.0819
79.6265
76.8801
73.1675
67.928
60.3239
50.1737
38.5976
27.8842
20.5237
17.8587
19.1042
21.3827
20.9336
15.013
3.53945
-10.4751
-22.1667
-27.3499
-25.1614
-19.3163
-16.8905
-24.643
-44.2584
-68.8489
-83.0083
-67.416
-6.86643
101.417
243.132
388.809
502.478
554.11
530.748
441.442
313.665
182.72
78.8052
17.3659
-3.45863
1.97736
15.8167
25.1035
25.8004
21.3934
18.002
19.4022
24.7915
30.049
31.0641
26.6934
19.4921
13.9987
13.8973
19.9198
29.6771
39.2937
45.6546
47.8715
47.2497
46.0401
45.9382
47.2696
49.2163
50.7366
51.4687
52.0505
53.7431
57.6839
64.2476
72.8343
82.1155
90.5385
96.8469
100.446
101.547
101.071
100.305
100.38
101.707
103.647
104.636
102.821
96.9591
87.1512
74.9653
62.8295
52.9563
46.3569
42.4767
39.6495
36.105
30.9552
24.6074
18.4025
13.7308
11.1766
10.2009
9.53211
8.0044
5.32863
2.33589
0.562473
1.42978
5.48804
12.1216
19.8232
26.8251
31.7239
33.8188
33.114
30.145
25.8232
21.367
18.2091
17.7161
20.6889
26.8492
34.6715
41.8276
46.1825
46.892
44.9804
42.9728
43.6602
48.5995
57.1732
66.7695
74.0407
76.5758
74.0791
68.4167
62.538
58.9035
58.3027
59.6802
60.9897
60.5225
57.9424
54.4813
52.2524
53.1002
57.5921
64.6116
71.6806
75.8206
74.6004
67.016
53.9406
38.0019
22.8794
12.1862
8.28966
11.5302
20.2094
31.3995
42.2162
50.9318
57.3792
62.5223
67.5711
73.2857
79.919
87.7173
97.4042
110.002
125.821
143.16
157.732
163.582
155.457
131.556
95.1438
53.9486
17.3761
-7.16936
-17.0532
-14.9262
-6.8577
0.798318
4.13806
2.76715
-1.04633
-4.32476
-5.19709
-3.64993
-1.0579
0.951579
1.49411
0.746033
-0.433452
-1.18062
-1.1295
-0.486002
0.255983
0.68755
0.695708
0.430887
0.125547
-0.0737744
-0.15546
-0.179445
-0.186073
-0.15977
-0.0671737
0.0771864
0.185118
0.14127
-0.105907
-0.476825
-0.776888
-0.803886
-0.491312
0.00239518
0.331302
0.134981
-0.722693
-1.97083
-2.92178
-2.68436
-0.545852
3.62751
9.1629
14.6734
18.495
19.3332
16.8618
11.996
6.66983
3.1631
3.234
7.43045
14.8888
23.7105
31.7382
37.3704
40.0649
40.3617
39.5065
38.9202
39.7621
42.6937
47.7975
54.5508
61.8293
68.0359
71.4787
70.9879
66.5411
59.5174
52.291
47.2108
45.4154
46.1369
46.9788
45.1466
39.048
29.3983
19.1682
12.3116
11.8755
18.4519
29.7695
41.6363
49.7645
51.5945
47.2856
39.4842
32.0637
28.4527
30.2733
36.8054
45.421
52.7564
56.1416
54.7241
49.8369
44.4255
41.722
43.6997
50.0073
57.9478
63.6172
63.7533
57.4208
46.6546
35.6465
28.789
28.5223
34.0886
41.8779
47.2361
46.8277
40.329
30.5613
21.9892
18.379
20.8573
27.3926
33.957
36.7186
34.0728
27.425
20.3336
16.5197
17.8547
23.4239
30.1414
34.5268
34.6262
31.0157
26.3699
23.8938
25.5241
30.886
37.5159
42.1431
42.2703
37.2198
28.1979
17.5217
7.56755
0.0304973
-4.2446
-5.01715
-2.3773
3.26701
10.9711
19.1117
25.6502
28.8607
28.1983
24.7777
21.063
19.8012
22.6985
29.5404
38.2517
45.877
49.9535
49.5443
45.426
39.4261
33.3732
28.2714
24.0852
20.1056
15.5506
10.0277
3.70658
-2.7024
-8.022
-10.7619
-9.56783
-4.10951
3.85865
10.039
8.64516
-4.69979
-29.0775
-55.4201
-66.9765
-44.2629
26.5931
145.473
294.137
439.352
543.148
576.48
530.497
420.25
278.933
145.121
48.6522
1.2956
-4.20323
12.7873
31.4503
38.5707
32.0977
18.5943
7.07379
3.13236
6.43166
12.2377
15.3435
13.6192
9.07585
6.10857
8.34001
16.1869
26.6321
35.2066
38.8296
37.7102
35.1777
35.6058
41.7257
52.9306
65.5335
74.7748
77.3902
73.2886
65.466
58.3082
55.3138
57.5052
63.3126
69.8311
74.5988
76.839
77.5253
78.3738
80.4874
83.5206
85.8461
85.5622
81.6742
74.7121
66.4234
58.7549
52.756
48.0536
43.1903
36.6
27.6462
17.1428
7.09217
-0.190331
-3.10216
-1.43973
3.52887
9.57444
14.3426
16.1839
14.7055
10.8914
6.75571
4.61478
6.18119
11.7928
20.1129
28.5136
34.0767
34.8344
30.6869
23.528
16.4656
12.4752
13.1233
17.9684
24.8989
31.1936
34.7541
34.9271
32.6011
29.6412
28.0113
28.9912
32.7565
38.3822
44.1783
48.2154
48.9124
45.5626
38.6546
29.8425
21.494
15.9146
14.5244
17.3478
23.0672
29.6321
35.1343
38.5166
39.7801
39.6327
38.8311
37.6265
35.6447
32.2617
27.2339
21.1831
15.604
12.331
12.703
16.8579
23.5408
30.5634
35.7138
37.6802
36.532
33.5292
30.3781
28.3443
27.7024
27.8069
27.7109
26.9472
25.9866
26.0847
28.5875
34.092
41.951
50.4124
57.3213
61.0031
60.8687
57.4809
52.1407
46.2981
41.1093
37.2778
35.0833
34.4113
34.7031
34.9525
33.9755
31.0285
26.5164
22.2484
20.7654
23.7615
30.3465
36.3614
35.7455
23.9554
2.08186
-20.6219
-27.8964
-1.91226
68.6473
181.319
317.184
444.948
530.939
551.278
501.057
396.425
268.471
151.498
70.7238
34.5752
34.4429
51.2863
65.4826
65.2429
50.1009
28.6571
12.5029
9.7365
21.1732
40.6245
58.5056
66.5891
61.5332
45.7585
25.6936
8.5858
-0.509926
-0.328696
6.80817
16.5631
24.627
28.363
27.5281
23.9965
20.7627
20.664
25.2706
34.2877
45.6571
56.3325
63.4739
65.6186
63.336
59.0343
55.9355
56.6277
61.8427
70.0515
78.102
82.6281
81.5802
75.1652
65.7705
56.9307
51.8235
51.9601
56.6038
63.1076
67.9912
68.3192
62.8699
52.6789
40.7458
30.9646
26.621
29.0085
36.7603
46.2773
53.1949
54.3196
49.159
40.259
32.0871
28.9251
32.7803
42.3697
53.7147
62.0534
64.0907
59.4374
50.5419
41.2354
34.7324
32.1711
32.4093
33.0705
32.1543
29.2718
25.8457
24.2263
26.2742
32.217
40.3934
48.001
52.4371
52.5422
49.1411
44.6394
41.8938
42.8922
47.8407
55.0455
61.6202
64.6919
62.5836
55.4714
45.2538
34.7162
26.3846
21.5954
20.1994
20.9966
22.6223
24.3653
26.443
29.5818
34.1881
39.6894
44.5612
47.144
46.807
44.6852
43.3551
45.4075
51.5941
59.6344
64.5492
60.6125
44.0888
15.4011
-20.4154
-55.2708
-80.8669
-91.5096
-85.6825
-65.9131
-37.3323
-5.84289
23.2778
46.0273
59.8082
63.4733
57.5146
44.2357
27.5193
11.9332
1.33477
-2.45629
-0.250924
5.01347
9.68613
11.0649
8.51904
3.5689
-1.05253
-2.83781
-0.717708
4.51945
10.7474
15.6415
17.8355
17.5167
16.1847
15.7311
17.3413
20.8011
24.5764
26.6256
25.5219
21.2992
15.5833
10.9379
9.75135
13.2033
20.785
30.5605
40.0062
47.028
50.7234
51.6031
51.2258
51.4231
53.43
57.2626
61.6039
64.2851
63.2195
57.4296
47.711
36.5661
27.335
22.8292
24.066
29.7227
36.6423
41.2273
41.1063
36.2788
29.1606
23.4649
22.4246
27.1985
36.2306
45.8877
52.089
52.1622
46.0532
36.3213
26.9316
21.4254
21.3378
25.6027
31.1993
34.6948
33.9152
28.9374
21.9509
16.1073
13.9639
16.2942
21.8135
27.8808
31.7619
31.8061
28.0102
21.8083
15.322
10.5167
8.64902
10.1466
14.7968
22.0059
30.9526
40.6196
49.8142
57.2865
61.9524
63.1206
60.6026
54.6799
46.0118
35.6026
24.8473
15.5192
9.49114
8.10874
11.4194
17.7222
23.9069
26.6917
24.284
17.5404
9.74657
4.80417
4.61857
7.24686
7.31578
-0.831256
-18.4307
-38.5443
-45.8969
-21.553
48.7664
166.191
314.299
461.736
571.714
614.942
580.58
480.398
344.248
208.813
104.563
46.3721
31.3055
43.5522
63.3833
75.6485
74.2794
61.7348
44.8829
30.1739
20.6227
15.5827
12.5913
9.64432
6.46319
4.28223
4.68737
8.47671
15.2477
23.7709
32.6844
40.9618
47.9329
53.0556
55.8173
55.9694
53.9362
51.0023
48.9659
49.3191
52.4061
57.1225
61.4457
63.5762
63.0475
61.1287
60.2218
62.5488
68.8561
77.8737
86.8434
92.8274
94.0767
90.731
84.5204
77.7038
71.8751
67.2907
63.0283
57.8021
50.9102
42.7556
34.6685
28.1686
24.1241
22.3106
21.6389
20.9246
19.7453
18.8425
19.7516
23.7853
30.9235
39.3249
45.9236
47.9866
44.8694
38.9116
34.6973
36.7341
46.5613
60.8512
71.8002
70.0513
49.0391
8.7264
-43.2181
-93.6304
-128.646
-138.982
-123.328
-88.3926
-45.7504
-7.0862
19.9496
33.5862
37.0473
35.8103
34.5957
35.5117
37.9643
39.9764
39.9392
37.7845
35.0392
33.8816
35.8221
40.7624
46.9367
51.755
53.1098
50.4728
45.2085
39.9261
37.1763
38.148
42.0414
46.4513
48.5718
46.5948
40.5695
32.2888
24.2977
18.5918
15.7137
14.6988
13.8241
11.6749
7.91126
3.34414
-0.640889
-2.9114
-3.17235
-2.01414
-0.476696
0.549772
0.723758
0.265547
-0.340658
-0.708158
-0.736168
-0.550259
-0.305904
-0.046181
0.269364
0.611847
0.777671
0.481809
-0.364446
-1.39978
-1.85329
-0.988179
1.25669
3.88648
5.15452
3.58026
-0.845584
-6.12882
-9.05159
-7.12061
-0.616642
6.73352
9.38071
3.38972
-10.2494
-24.8411
-31.0228
-22.5777
-1.758
19.6928
25.739
5.77268
-36.1853
-78.6905
-89.7179
-41.2708
74.9514
239.162
407.792
529.68
567.033
511.221
385.793
235.438
106.584
29.1365
7.6412
24.8029
53.9218
72.9016
72.8396
58.1403
40.0076
28.2576
26.2413
30.8977
36.5938
39.4902
39.5673
39.5121
41.842
46.5731
51.0416
51.835
47.3734
39.3585
32.1514
30.4902
36.9404
50.5311
67.2548
82.0363
91.0435
93.1756
90.1254
85.1923
81.5838
81.0541
83.424
87.0331
89.7557
90.0368
87.4932
82.8907
77.6046
72.882
69.2686
66.454
63.5756
59.7997
54.8695
49.3278
44.2822
40.8148
39.3292
39.1846
38.8479
36.5504
31.18
22.9908
13.7639
6.27464
3.24132
6.17466
14.6261
26.184
37.2647
44.4087
45.5788
40.9396
32.7968
24.7012
20.0488
20.7172
26.2824
34.155
40.6265
42.4393
38.2484
29.3313
19.1791
12.0677
11.1824
17.1284
27.5447
38.0688
44.2732
43.7042
37.0652
27.9583
21.2689
20.9274
28.0762
40.4864
53.4799
61.9307
62.4464
54.786
41.9339
28.8448
20.4213
19.5752
26.1492
37.1033
47.8432
54.1154
53.673
47.0305
37.0328
27.485
21.5003
20.3214
23.0983
27.6109
31.4592
33.0674
32.044
28.8753
24.3234
19.0121
13.4534
8.37562
4.95021
4.5696
8.18263
15.585
25.1979
34.6133
41.6887
45.5648
46.9599
47.5183
48.593
50.2418
51.1115
49.3371
43.9101
35.6325
26.9901
20.9379
19.2821
21.6236
25.5193
27.7982
26.2873
20.963
13.8832
7.96376
5.3117
6.05877
8.3395
9.42383
7.39301
2.45111
-2.88069
-4.92136
-0.915788
8.90522
20.4231
26.7123
21.1484
1.5594
-26.4225
-48.8335
-46.8802
-3.96919
86.1689
213.863
353.579
470.742
533.31
523.599
445.256
322.109
189.174
79.6417
13.4539
-7.79775
1.9653
21.9886
34.6637
32.2019
17.5577
0.225274
-10.1302
-8.72518
2.79867
18.3703
31.2869
37.5349
37.0872
32.9966
29.2463
28.6986
32.0816
38.1906
44.8583
50.0465
52.5991
52.5192
50.8608
49.3717
49.9731
54.1412
62.3216
73.5927
85.796
96.1905
102.435
103.49
100.021
94.078
88.2001
84.3474
83.166
83.8997
84.9317
84.6353
82.0974
77.3973
71.394
65.2292
59.8559
55.8071
53.2212
51.9691
51.7077
51.8108
51.3024
48.9945
43.927
35.9742
26.2682
17.0715
10.974
9.68436
13.0097
18.6382
22.9914
22.847
16.9604
6.82461
-3.90355
-11.091
-12.0996
-7.02286
1.46067
9.52945
14.1726
14.6039
12.4034
10.3723
10.8022
14.1618
18.933
22.6502
23.5004
21.5281
18.7258
17.9311
21.1354
28.1484
36.3864
41.9567
41.5276
34.0538
21.4943
8.14986
-1.08606
-2.75846
3.74672
16.0257
29.7271
40.3422
44.9141
42.9667
36.3527
28.2148
21.6015
18.3537
18.6692
21.4029
24.8356
27.5022
28.7249
28.703
28.2247
28.207
29.2765
31.5317
34.5203
37.3991
39.21
39.2022
37.117
33.3367
28.8143
24.7599
22.1761
21.4352
22.118
23.2306
23.7248
23.0634
21.5126
19.9769
19.4484
20.3851
22.4046
24.5059
25.7146
25.7566
25.3135
25.636
27.6968
31.3871
35.2978
37.3173
35.7751
30.4809
22.9913
15.852
11.1895
9.48962
9.38267
8.68405
6.12378
2.61987
1.05374
4.35198
12.8586
22.7775
27.2509
20.3109
2.08137
-17.7157
-20.7362
13.637
98.5463
230.836
387.88
532.69
626.154
641.599
575.33
448.294
297.974
164.101
74.4986
37.0485
40.584
63.2343
83.5414
89.0343
78.9342
60.9653
45.0442
37.5689
38.9652
44.946
49.9557
50.4821
46.5019
40.692
36.3058
35.1383
36.6746
38.6879
38.7587
35.8028
30.8209
26.5445
26.1944
31.9444
43.7952
59.3682
74.7367
85.955
90.6171
88.7472
82.6185
75.6076
70.6631
69.1399
70.532
73.1345
75.1725
75.732
75.0155
73.8885
73.1052
72.7339
72.1095
70.2702
66.5383
60.8805
53.8847
46.4718
39.5954
34.1055
30.7487
30.1276
32.4802
37.3376
43.3176
48.33
50.2672
47.9247
41.6801
33.5088
26.2329
22.3215
22.8197
26.9398
32.5075
37.0199
38.777
37.5457
34.4883
31.4692
30.1347
31.2189
34.3546
38.392
41.9942
44.1932
44.6712
43.6978
41.8211
39.4973
36.8371
33.5691
29.2181
23.4161
16.2062
8.20144
0.500452
-5.6403
-9.26293
-10.0832
-8.57176
-5.65011
-2.11887
1.87009
6.94676
14.0886
23.7813
35.2401
46.2248
53.7065
55.1672
49.8775
39.4256
27.1234
16.5429
9.95345
7.51632
7.66303
8.38451
8.61896
8.88415
10.7879
15.7624
23.855
33.3592
41.5347
45.9778
45.8147
42.0268
36.7744
32.1948
29.4234
28.378
28.3151
28.6841
29.6602
32.0167
36.4648
42.9467
50.3771
57.0169
61.2507
62.3011
60.4801
56.8855
52.7723
48.9793
45.6941
42.5977
39.2193
35.2653
30.7707
26.0641
21.6223
17.8988
15.1697
13.4205
12.3205
11.3443
10.0539
8.43702
7.08874
7.03966
9.21079
13.7439
19.6276
24.96
27.8452
27.4992
24.9088
22.5486
23.1576
28.1552
36.5619
45.0981
49.5267
46.6346
35.8844
19.9248
3.72294
-7.25868
-9.02662
-0.382982
16.7868
38.2106
58.5554
72.9523
78.3574
74.4529
63.8252
51.2221
41.9196
39.6151
44.6453
53.4204
59.5971
56.7346
41.3727
15.0829
-15.6238
-41.681
-55.1596
-52.5821
-36.3008
-13.3038
7.94269
21.0855
24.2452
20.1757
14.3706
12.2155
16.6056
27.0357
40.3317
52.397
60.0008
61.823
58.5069
51.9879
44.6068
38.4116
34.7741
34.2217
36.3571
39.8687
42.7699
42.9776
39.1423
31.394
21.58
12.7423
7.96709
9.09949
15.9424
26.3386
37.0883
45.2334
49.0903
48.6013
44.9793
39.9812
35.2548
32.0354
31.157
33.1327
38.07
45.4165
53.7698
61.054
65.1711
64.8951
60.5279
53.8706
47.4207
43.18
41.7513
42.2796
43.2859
43.8292
44.1333
45.0925
46.8477
47.4455
42.8862
29.274
6.47841
-18.6102
-31.6141
-14.4545
47.2324
155.93
297.349
441.989
553.636
601.934
573.88
479.135
346.595
213.545
112.056
58.3935
49.6244
68.163
91.452
102.016
93.5573
71.1214
46.2775
30.3479
29.0605
40.7746
58.4342
73.7088
81.0709
79.9739
74.4182
70.4313
72.8049
82.598
96.4517
107.939
110.314
99.4711
75.8517
44.5054
13.302
-9.92931
-20.1257
-16.4906
-2.2679
16.9371
35.4389
49.3652
57.4879
60.8791
61.7821
62.3255
63.6263
65.5421
67.0173
66.761
63.928
58.5397
51.5076
44.2739
38.2255
34.1287
31.8355
30.4073
28.6197
25.6274
21.4775
17.2185
14.5278
14.9999
19.3838
27.0843
36.1402
43.724
47.0313
44.2832
35.5003
22.7282
9.54308
-0.0822194
-3.18758
1.04036
10.9182
22.9095
33.0252
38.3663
38.1118
33.5234
27.0381
20.9766
16.5462
13.6027
11.1709
8.3141
4.79845
1.19652
-1.54735
-2.74933
-2.40221
-1.14824
0.120134
0.746686
0.590541
-0.0268027
-0.614437
-0.829214
-0.630635
-0.222838
0.129026
0.266836
0.196341
0.0311316
-0.107246
-0.157081
-0.121718
-0.0348169
0.0711803
0.169773
0.229326
0.213858
0.108173
-0.0516203
-0.178199
-0.182431
-0.0485742
0.122041
0.148636
-0.113297
-0.646887
-1.23553
-1.56558
-1.4303
-0.909539
-0.389628
-0.37432
-1.17536
-2.66612
-4.25969
-5.13406
-4.56019
-2.11492
2.35285
8.93503
17.8183
29.1436
42.5454
56.6341
68.8583
76.0573
75.6399
66.8866
51.6776
34.1493
19.3092
11.1984
11.4422
18.8276
30.0107
40.9192
48.1815
50.0737
46.848
40.5788
34.6734
33.0132
38.6113
51.9259
69.4894
83.9154
86.1363
69.7294
35.7718
-4.33935
-30.4339
-20.1019
41.7278
154.198
297.284
436.354
533.499
561.27
512.987
405.079
270.415
145.645
58.1175
17.8147
17.0967
37.3246
58.5217
67.4579
61.0215
44.4553
26.455
14.1329
10.192
13.0024
18.6813
23.5458
25.6188
24.7806
22.0143
18.5216
15.2463
12.8504
11.8333
12.4826
14.613
17.3411
19.2132
18.8057
15.5838
10.5655
6.353
6.37076
13.5389
28.9247
50.9818
75.781
98.2287
113.841
120.361
118.53
111.632
103.986
99.0171
97.8038
98.7857
98.7951
94.8989
86.1133
74.0866
62.3697
54.641
52.8254
56.1147
61.4199
65.0009
64.3817
59.5116
52.5737
46.5986
43.703
43.9456
45.4088
45.398
42.0259
35.2705
26.94
19.6356
15.3693
14.6522
16.5404
19.5241
22.6361
26.0409
30.7095
37.3736
45.4371
52.6037
55.5977
51.7192
40.4453
24.1791
7.63696
-3.94393
-6.9667
-0.97894
11.1994
24.766
35.0012
39.1282
37.1513
31.4135
25.2411
21.4215
21.2119
24.1973
28.8434
33.302
36.0397
36.1053
33.1294
27.2717
19.2476
10.3789
2.4841
-2.53089
-3.3149
0.329692
7.23664
15.2448
22.0366
26.0634
27.0976
26.1301
24.676
23.8677
23.8385
23.7365
22.3668
19.1033
14.5463
10.5163
9.31961
12.6167
20.4629
31.0371
41.2507
47.9923
49.4442
45.864
39.4869
33.6187
31.3468
34.4209
42.7056
54.3139
66.2559
75.319
78.9308
75.8515
66.5881
53.4083
39.8317
29.6022
25.3938
27.7573
34.8593
43.2766
49.5795
51.9473
50.9426
48.9655
48.6435
51.0656
54.9195
57.1071
54.5469
46.1348
33.6939
21.2932
13.2576
11.9558
16.5918
23.6587
28.7854
28.9509
23.8878
15.9944
8.90446
5.5558
6.78025
11.0728
15.5303
17.3706
15.2326
9.67795
2.77568
-2.90397
-5.36025
-3.85377
0.960806
7.37399
13.2069
16.43
15.6948
10.723
2.4966
-6.8544
-14.5567
-18.0611
-16.0333
-9.05601
0.35934
8.60557
12.4087
10.2548
3.13521
-5.7955
-12.546
-14.0062
-9.26387
0.0720566
10.6442
18.7974
22.0153
19.7388
13.3248
5.32307
-1.50039
-4.97619
-3.96888
1.5378
10.5596
21.3156
31.5095
38.7547
41.1692
38.0277
30.2193
20.2258
11.4835
7.25506
9.41417
17.6678
29.62
41.7365
50.8369
55.443
56.3153
55.8643
56.688
59.9786
64.6757
67.9011
66.5215
59.0192
46.5876
32.732
21.4864
15.2114
13.2933
12.6377
9.81098
3.60666
-3.6339
-7.04991
-2.37841
10.5343
26.136
35.0691
29.3017
8.16802
-18.0752
-29.8732
-5.53636
68.6286
189.778
336.011
471.9
560.437
576.621
516.911
400.403
261.278
135.888
50.0732
11.8826
12.1051
31.4088
50.1415
56.2266
48.1277
32.5669
19.1048
14.7217
20.8977
33.9922
47.9874
57.7417
61.0863
59.0487
54.563
50.6618
49.1318
50.1256
52.6285
55.3015
57.1883
58.0047
58.0205
57.7434
57.6347
57.9842
58.9288
60.5208
62.7619
65.5955
68.9139
72.6381
76.8483
81.8516
88.0502
95.5783
103.863
111.411
116.106
116.029
110.485
100.674
89.4954
80.4184
75.8735
75.9829
78.3637
79.2039
75.1238
64.8748
49.9958
34.0981
21.184
13.886
12.4969
15.1735
19.0645
21.6865
21.8634
19.8899
17.0222
14.6904
13.8461
14.6733
16.6716
18.9813
20.7921
21.706
21.945
22.3128
23.8759
27.447
33.0888
39.9125
46.3428
50.7852
52.3871
51.4942
49.5345
48.3668
49.4171
53.0375
58.3845
63.8334
67.6798
68.7868
66.9256
62.7482
57.4899
52.5548
49.105
47.729
48.2525
49.7613
50.8826
50.2726
47.1346
41.5277
34.3041
26.703
19.8328
14.3284
10.3448
7.80419
6.63865
6.79497
7.98847
9.44623
9.96104
8.39147
4.3967
-1.06698
-5.91927
-7.86218
-5.60255
0.30062
7.51322
12.9709
14.3655
11.2689
5.28863
-0.798846
-4.41758
-4.30347
-0.809207
4.63407
10.4589
15.709
20.2115
24.2093
27.815
30.6944
32.1682
31.6093
28.8359
24.2413
18.6143
12.8035
7.45006
2.9176
-0.612444
-3.01943
-4.21659
-4.23279
-3.31155
-1.91447
-0.587388
0.247338
0.44994
0.179268
-0.238354
-0.503001
-0.484863
-0.24841
0.0331745
0.202621
0.20359
0.0874099
-0.0429364
-0.103665
-0.0720028
0.0162594
0.0995382
0.127809
0.085565
-0.00463867
-0.09389
-0.128222
-0.0746912
0.0555116
0.199979
0.266683
0.183764
-0.0450673
-0.317569
-0.472259
-0.38403
-0.0652246
0.300526
0.438178
0.151884
-0.510223
-1.2179
-1.51155
-1.09192
-0.0810699
0.93599
1.18062
0.16786
-1.84644
-3.75111
-3.948
-1.0934
5.13208
13.6363
22.1622
28.106
29.5465
26.0071
18.607
9.56606
1.33595
-4.22384
-6.29304
-5.07174
-1.44767
3.39783
8.26805
12.1024
14.1087
13.9619
12.0181
9.35736
7.48108
7.67048
10.2812
14.3966
18.1499
19.6605
18.1134
14.3249
10.365
8.36843
9.23888
12.1316
15.1815
17.1091
18.596
22.2365
30.6559
43.6908
56.5424
60.7548
48.4863
18.44
-19.8027
-46.2759
-37.1667
24.5857
139.298
286.387
429.072
526.867
550.846
494.96
378.258
236.996
110.31
25.9053
-8.10612
-2.40879
21.7801
43.7106
51.5248
44.8162
31.3555
20.7802
18.9727
25.7508
36.2812
44.6365
47.1369
43.7345
37.1144
30.4938
25.6225
22.0902
18.1167
12.1361
4.13614
-4.02302
-9.44073
-9.65594
-3.96372
6.11338
17.4255
26.5612
31.3163
31.5795
29.2437
27.225
28.0815
32.8927
40.8939
49.9706
57.6914
62.332
63.4116
61.5776
58.0336
53.9064
49.8933
46.2856
43.2025
40.7727
39.104
38.0956
37.3016
36.0327
33.701
30.21
26.1208
22.4495
20.1839
19.7966
21.0409
23.1377
25.2232
26.78
27.8124
28.7082
29.9216
31.6899
33.9258
36.2792
38.2654
39.3615
39.0669
37.0014
33.0957
27.8255
22.3272
18.2285
17.1582
20.1018
26.9094
36.2306
45.9531
53.9605
58.8587
60.3417
59.0627
56.1255
52.4796
48.5152
44.0233
38.5035
31.6531
23.8085
16.1337
10.43
8.56899
11.6973
19.5075
29.9329
39.5449
44.666
42.8519
34.1061
21.1732
8.59828
0.823721
0.148511
5.55767
13.0943
17.703
15.6988
6.6397
-6.35883
-18.0448
-23.4706
-20.2281
-9.40422
5.10764
18.4498
26.791
28.5377
24.394
16.5514
7.64219
-0.00932959
-4.69337
-5.3769
-1.77351
5.55007
15.25
25.6873
35.7399
45.4911
56.2194
69.4495
85.4599
102.159
115.22
119.724
112.617
94.6649
70.7246
47.9996
33.0936
29.3542
35.8466
48.367
61.7942
72.4217
79.0917
82.7759
85.1719
87.348
89.242
90.139
89.6007
88.1032
86.9426
87.5215
90.5409
95.6313
101.613
107.149
111.329
113.852
114.797
114.27
112.256
108.81
104.401
100.079
97.2158
96.8499
98.9929
102.314
104.464
102.964
96.2345
84.3122
68.8887
52.6956
38.5181
28.2687
22.4715
20.2998
20.0806
20.0289
18.9277
16.5129
13.4359
10.824
9.62529
10.0409
11.3443
12.2291
11.5491
9.06647
5.76422
3.47783
3.98766
8.05426
14.9589
22.8473
29.7067
34.421
37.2885
39.708
43.2367
48.5943
55.1944
61.438
65.54
66.3707
63.8506
58.7682
52.2495
45.2607
38.3958
31.9219
25.8669
19.969
13.5403
5.50967
-5.10369
-18.3275
-32.435
-43.8716
-48.364
-43.0317
-28.5663
-10.1289
4.08203
6.60282
-4.53777
-22.4185
-31.4644
-12.2729
50.1952
158.304
297.303
437.592
543.739
587.084
556.702
463.819
337.476
213.191
119.605
68.9732
55.4005
60.9229
65.8353
57.9841
36.805
10.9782
-8.08767
-12.9261
-3.36068
14.6262
33.0501
46.2525
52.9815
55.5663
57.3742
60.5376
65.3457
71.2735
78.4251
87.9783
101.105
117.115
132.328
140.843
137.198
119.576
91.6869
62.0072
40.5221
34.4908
45.368
68.4163
95.1309
117.154
129.676
132.739
130.061
126.316
124.483
124.617
124.461
121.239
113.431
101.495
87.3158
72.917
59.3977
46.7624
34.655
23.3654
14.2933
9.43304
10.1241
15.8604
23.9918
30.6515
32.5008
28.3543
19.7655
10.2171
3.34333
1.14864
3.17296
7.00249
9.7651
9.72678
7.10358
3.70136
1.68253
2.23444
4.91786
8.03263
9.72748
9.16173
7.02713
5.13888
5.35646
8.47736
13.7472
19.2606
23.012
23.9913
22.7088
20.8763
20.4568
22.6425
27.3324
33.3597
39.2625
44.0887
47.7403
50.694
53.3543
55.5358
56.4751
55.4007
52.2789
48.1884
44.9755
44.2914
46.5456
50.4275
53.3664
52.7678
47.3899
38.1039
27.5923
19.1068
14.9242
15.2964
18.4226
21.429
21.8217
18.6615
12.8925
6.71673
2.39956
1.15368
2.67055
5.4999
8.02476
9.47099
10.3809
12.2738
16.6638
23.9735
32.9778
41.1529
45.8269
45.5609
41.0089
34.7401
30.0462
29.3298
32.9329
39.0516
44.7893
47.756
47.3068
44.7217
42.2513
41.6195
42.8891
44.3674
43.5998
38.8528
30.2097
19.6516
10.1037
4.0159
2.27162
3.97686
7.14086
9.77385
10.7637
10.1163
8.57165
6.96258
5.76032
5.04221
4.79181
5.21695
6.78451
9.89347
14.3857
19.2446
22.7606
23.1831
19.5869
12.5068
3.96494
-3.21378
-6.54067
-4.93765
0.791787
8.37784
15.239
19.831
22.4904
25.2784
30.819
40.6784
54.1401
68.1012
78.2717
81.157
75.8288
64.5284
51.7172
42.0067
38.0183
39.2766
42.688
44.2945
41.3177
33.4031
22.4862
11.5169
2.89181
-2.48994
-5.1217
-6.00708
-5.72462
-4.09413
-0.598782
4.84579
11.416
17.5963
21.9598
23.9748
24.2826
24.2896
25.4107
28.531
34.0424
42.3208
54.1167
70.3517
91.2732
115.494
139.704
159.541
171.396
174.234
170.361
164.546
161.851
165.268
174.428
186.038
195.721
200.165
198.392
191.551
181.644
170.179
157.785
144.991
133.514
126.786
128.856
141.782
162.905
183.886
192.857
179.413
140.398
83.4726
26.0313
-10.8794
-11.3963
27.5725
93.8507
164.241
213.935
226.866
202.192
153.886
103.772
71.5293
66.4994
85.0231
114.077
138.834
150.051
147.671
139.309
134.998
141.298
157.845
177.781
191.455
191.197
174.796
146.207
113.549
85.6014
68.4678
63.6653
68.0943
75.5714
79.1789
73.6296
57.0154
31.5243
2.92742
-21.107
-33.4625
-30.0109
-11.0868
18.7111
52.4218
83.4918
108.024
125.287
136.237
141.042
137.464
121.65
91.4762
50.8131
11.9185
-6.36047
15.0978
87.121
205.393
349.002
485.779
582.606
616.512
582
491.874
371.793
251.259
154.707
95.5903
74.6431
81.9189
101.344
116.379
115.455
95.8228
64.4803
35.3291
23.058
35.931
70.8111
113.323
143.847
146.966
119.765
74.4223
33.2305
18.0865
39.654
91.8077
154.358
202.737
219.662
202.841
164.961
126.387
104.712
106.695
126.471
150.311
164.78
163.641
150.022
133.297
123.031
123.713
133.08
144.535
151.739
152.466
149.532
148.506
153.853
165.842
179.934
188.813
185.772
167.656
136.075
96.7122
57.4377
26.2204
9.47272
10.9145
30.7947
65.4716
107.683
147.907
176.841
188.305
181.421
160.963
135.555
114.376
103.773
105.152
114.894
126.103
131.34
125.341
106.94
79.7663
51.5331
31.8869
29.109
46.5
79.8307
117.328
142.925
142.032
107.627
43.8292
-34.9859
-109.445
-162.544
-185.751
-181.14
-158.937
-132.136
-111.104
-100.623
-100.146
-106.181
-114.881
-123.357
-129.517
-131.319
-126.595
-113.874
-93.6711
-69.1581
-45.4743
-27.8053
-19.2155
-19.4148
-25.1065
-31.6673
-35.2226
-34.0888
-29.0123
-22.3099
-16.4926
-13.056
-11.8951
-11.4659
-9.54277
-4.25949
4.9478
16.8757
28.8327
37.6618
41.1489
39.1717
33.9528
29.1539
28.1546
32.3606
40.4628
49.1181
54.7479
55.5049
52.313
48.3691
47.3453
51.2668
59.2395
67.7384
72.3123
69.7847
59.7808
44.8059
28.9111
15.7367
7.01137
2.26486
-0.210389
-1.81565
-2.47385
-0.518715
6.30599
19.3274
37.7782
58.6501
77.6786
90.9903
96.6436
95.388
90.3645
85.9269
86.0735
93.0442
106.503
123.513
139.305
148.623
147.324
133.736
109.319
78.3284
46.5495
19.5215
0.949625
-8.09326
-8.92474
-4.21044
3.29115
11.5851
19.5906
26.7166
32.3079
35.4148
35.0678
30.8675
23.472
14.6118
6.54447
1.19647
-0.57754
0.747189
3.68771
6.45546
7.67289
6.7868
4.06808
0.318686
-3.4749
-6.34865
-7.39596
-5.75237
-0.693777
8.08789
20.1396
34.0634
47.7007
58.7192
65.4087
67.3431
65.6001
62.4197
60.434
61.7644
67.2976
76.3403
86.7238
95.3407
99.0541
95.8356
85.8119
71.722
58.2746
50.2607
49.965
55.1303
58.9419
52.8475
31.5898
-1.73107
-33.4952
-42.4515
-7.57741
81.8923
218.814
377.032
518.376
605.548
615.705
548.876
427.514
287.474
164.517
82.1911
45.9425
45.0527
60.4166
73.9016
75.0641
62.975
43.5641
24.809
12.4963
8.28565
10.2475
14.8332
18.8971
20.8362
20.6712
19.4571
18.5496
19.0564
21.5367
25.8784
31.3088
36.5783
40.3548
41.7537
40.7912
38.5052
36.601
36.7137
39.5932
44.6022
49.805
52.6686
51.1146
44.4761
33.9241
22.1289
12.2518
6.67132
6.00835
8.91648
12.7741
14.9823
14.2481
11.2025
8.00951
7.14425
9.97559
15.9304
22.7302
27.6129
28.8942
27.0015
24.378
24.2667
29.0096
38.7759
51.4033
63.4265
71.7252
74.9111
73.7576
70.5312
67.6832
66.655
67.4075
68.8144
69.5615
68.9655
67.2656
65.3279
64.0734
64.0574
65.4501
68.3263
72.9308
79.5944
88.2621
97.9328
106.486
111.214
109.958
102.311
90.1908
77.3151
67.6862
63.765
65.2576
69.1857
71.2713
67.975
58.1738
43.6527
28.2133
15.9163
9.38443
8.98474
13.1649
19.5795
26.2691
32.243
37.2734
41.2303
43.5526
43.3019
39.8017
33.4121
25.8313
19.5597
16.6844
17.6216
20.594
22.2916
19.5281
11.1006
-1.15661
-12.7973
-18.6012
-14.9959
-1.86836
17.1719
36.2543
49.7373
54.5231
51.1162
43.0208
34.9248
30.6638
31.9395
38.2323
47.654
58.0541
67.7257
75.4851
80.3898
81.581
78.5639
71.8164
63.2577
56.0764
53.7602
58.6712
70.856
87.7466
104.985
118.045
123.91
122.077
114.476
104.452
95.3494
89.3522
87.0178
87.5548
89.563
91.8158
93.7511
95.5487
97.8706
101.438
106.607
113.049
119.605
124.386
125.165
120.053
108.272
90.728
70.0195
49.7316
33.1792
22.1154
16.0477
12.5885
8.76469
2.67026
-5.4183
-13.1317
-17.3507
-16.1393
-10.2081
-3.03701
0.523751
-3.49339
-16.2306
-35.4025
-56.3484
-74.1606
-85.7635
-90.9159
-91.7768
-91.4904
-92.7065
-96.8049
-103.986
-113.777
-125.312
-137.143
-146.935
-151.789
-149.612
-141.104
-131.045
-127.416
-137.791
-164.151
-198.733
-223.827
-216.969
-160.295
-50.2062
97.4318
249.889
367.875
419.67
393.066
299.788
170.411
42.1445
-54.9985
-107.638
-120.534
-110.553
-96.856
-92.3049
-99.6876
-113.469
-124.979
-127.724
-120.17
-105.281
-87.9502
-72.2616
-60.1057
-51.4304
-45.3947
-41.3659
-39.1537
-38.6132
-39.2012
-39.9796
-40.0833
-39.2359
-37.8351
-36.4784
-35.2621
-33.4064
-29.5645
-22.6959
-12.9616
-2.02867
7.48972
13.2051
14.1024
11.0319
6.28178
2.47101
1.34966
3.09845
6.41959
9.29934
10.0234
7.9685
3.85742
-0.566779
-3.25903
-2.67547
1.63608
8.85359
17.1522
24.3231
28.5156
28.8358
25.5901
20.1009
14.1925
9.56942
7.32128
7.70339
10.1994
13.7704
17.1723
19.2688
19.3245
17.2668
13.8562
10.6518
9.67432
12.7872
20.983
33.8769
49.6787
65.7208
79.3537
88.8319
93.8082
95.2512
94.8866
94.4787
95.2941
97.9254
102.412
108.435
115.386
122.279
127.662
129.782
127.09
118.948
106.18
91.0697
76.6685
65.6337
59.1292
56.3563
55.005
52.4519
47.1257
39.3494
31.2181
25.5642
24.5277
28.4465
35.6068
42.9495
47.3628
46.936
41.6225
33.0904
23.9242
16.5987
12.6588
12.3647
14.8186
18.4164
21.4094
22.4074
20.723
16.5095
10.6728
4.56861
-0.440852
-3.43226
-4.20155
-3.26157
-1.55922
-0.045886
0.696495
0.608468
0.0427021
-0.515327
-0.727592
-0.542291
-0.148226
0.190753
0.303761
0.188857
-0.0252597
-0.183884
-0.201756
-0.0962953
0.0461201
0.135802
0.132324
0.0573804
-0.0300355
-0.0740715
-0.053174
0.0123194
0.0759315
0.093286
0.0479924
-0.0376525
-0.113319
-0.12897
-0.067108
0.0398772
0.121155
0.106477
-0.0267582
-0.227674
-0.389066
-0.405608
-0.244125
0.0164553
0.206889
0.150872
-0.226188
-0.818168
-1.33575
-1.39434
-0.665025
0.969248
3.31748
5.89176
8.0371
9.14783
8.90034
7.41275
5.25397
3.27232
2.28779
2.76247
4.59429
7.14202
9.49105
10.8505
10.8966
9.89251
8.523
7.53122
7.35525
7.9657
8.99623
10.0908
11.2568
12.9932
16.0716
21.0439
27.7201
34.9202
40.7048
43.0624
40.7921
34.1709
25.0455
16.223
10.3675
8.87935
11.2926
15.5152
18.8365
19.2337
16.3273
11.4956
7.08817
5.15942
6.40841
9.89765
13.6812
15.9532
16.0344
14.6257
13.2131
13.0294
14.2478
15.9249
16.726
15.9543
14.1953
13.1171
14.5009
19.0747
25.8786
32.5866
36.6436
36.5809
32.7662
27.1745
22.3407
20.1039
20.8366
23.5199
26.5164
28.5187
29.1243
28.7937
28.3534
28.4553
29.3433
30.9941
33.4053
36.7142
40.9986
45.9032
50.4276
53.1503
52.8751
49.3658
43.7067
38.0047
34.5299
34.7465
38.766
45.512
53.4505
61.3983
68.8971
75.951
82.3827
87.3492
89.4734
87.6222
81.8602
73.8877
66.5149
62.3322
62.3242
65.336
68.8444
70.6434
70.3391
69.505
70.1255
72.1827
72.1402
63.9482
42.8636
10.4739
-22.0599
-35.3319
-8.39354
71.3181
199.321
351.456
489.734
575.179
582.534
510.326
381.594
234.785
108.881
29.3808
1.1253
10.4169
34.4138
52.6211
54.9597
43.2881
26.8976
15.3928
13.1077
17.6877
22.804
22.7331
15.8831
5.39466
-3.12664
-5.08161
0.568381
10.9901
21.3203
27.4028
27.8427
24.3806
20.6112
19.93
23.8535
31.4998
40.3195
47.5461
51.5788
52.6591
52.6207
53.9267
58.4786
66.7199
77.3862
87.9757
95.7328
98.7422
96.6872
90.9486
83.9848
78.2446
75.0862
74.2067
73.8691
71.8435
66.6151
58.2538
48.4871
39.9159
34.7606
33.7843
35.9509
38.9832
40.5038
39.137
35.0056
29.4244
24.0507
20.0275
17.5867
16.2402
15.3071
14.3581
13.2914
12.0807
10.4987
8.12909
4.73209
0.704419
-2.77072
-4.12846
-2.25175
2.74154
9.27466
14.8794
17.3147
15.6473
10.6996
4.62415
-0.149516
-2.01493
-0.772049
2.53507
6.32662
9.27916
10.7796
10.8997
10.0627
8.72184
7.2728
6.18474
6.13525
7.9181
12.0713
18.4152
25.8221
32.4574
36.4657
36.7963
33.729
28.7877
24.0416
21.1297
20.5089
21.3178
21.9295
20.8975
17.7883
13.4571
9.61544
7.91934
9.06197
12.3532
16.0188
18.0799
17.3696
14.1714
10.1424
7.53819
8.10122
12.147
18.301
24.0424
26.8313
25.3152
20.0501
13.3677
8.39842
7.64825
11.767
19.103
26.3209
29.8819
27.7562
20.5682
11.5736
5.37793
5.91103
14.5756
29.4655
46.0778
59.224
65.2435
63.4538
56.1527
47.228
40.1475
36.3968
35.148
34.2335
31.7681
27.4318
22.6703
19.7446
20.2533
24.0541
29.2465
33.2244
34.1566
32.0063
28.4915
26.03
26.3082
29.3143
33.368
36.0818
35.661
31.8005
25.732
19.4957
14.9406
13.0341
13.7948
16.7258
21.3335
27.3158
34.2956
41.3401
46.7101
48.1915
44.0138
33.9543
20.0054
6.08899
-3.27897
-4.9112
1.41583
12.5156
22.9788
27.6423
24.2179
14.6539
4.24819
-1.33751
0.273393
6.02455
8.51211
0.44325
-19.4524
-42.3562
-50.1525
-21.9625
55.7722
180.271
329.348
466.838
555.075
569.282
507.444
391.014
256.062
138.943
62.9997
32.0549
32.8643
44.364
48.5779
37.9181
16.0802
-6.71892
-20.737
-21.972
-13.3199
-1.80879
5.86768
6.79284
2.57062
-2.52663
-4.49774
-1.80878
4.23072
10.7651
15.2976
16.9878
16.706
16.0515
16.1258
16.8678
17.2882
16.3343
13.7517
10.3771
7.70311
7.02293
8.70739
12.0531
15.7723
18.7995
20.9106
22.7755
25.4185
29.4217
34.3628
38.8523
41.1831
40.2482
36.209
30.5191
25.2511
22.0615
21.3396
22.0063
22.0937
19.8257
14.6428
7.62785
1.08813
-2.52354
-1.82021
2.78283
9.18857
14.5576
16.6236
14.7539
10.242
5.68878
3.76606
5.95103
11.8337
19.3227
25.6441
28.6485
27.7943
24.3358
20.6346
18.9439
20.2782
23.9394
27.937
30.0812
29.1761
25.684
21.5024
18.9706
19.6337
23.4297
28.7384
33.2585
35.2248
34.2904
31.5945
28.9998
27.9613
28.6872
30.075
30.4393
28.5756
24.5131
19.5033
15.266
12.9684
12.575
12.9694
12.7588
11.2388
8.89192
7.08592
7.15777
9.47196
13.0787
16.2281
17.4528
16.5536
14.8627
14.5912
17.6329
24.5308
34.2117
44.6238
53.8625
61.0985
66.7732
72.0033
77.6125
83.4043
88.0943
89.8994
87.4079
80.2577
69.3301
56.4687
43.9365
33.8337
27.5974
25.629
27.1337
30.3284
33.1175
34.0746
33.2287
32.0294
32.2046
33.9641
34.7213
29.628
14.4119
-10.4607
-36.5983
-47.991
-25.9864
42.345
156.036
296.56
431.456
524.709
549.93
500.584
392.606
258.109
133.013
44.1374
1.26368
-3.00739
13.4245
31.699
39.7159
34.9896
22.4576
9.52096
1.44661
-0.663678
0.984601
3.30761
4.49025
4.64474
4.98574
6.46446
8.9459
11.418
12.9021
13.271
13.3336
14.147
16.0957
18.4468
19.7446
18.8111
15.6834
11.839
9.51264
10.4938
15.1313
22.1455
29.3438
34.7844
37.6743
38.4901
38.3234
37.9545
37.3134
35.7078
32.6559
28.7164
25.6576
25.6993
30.1789
38.4269
47.6201
53.8657
54.0512
47.496
36.4687
25.2158
17.9538
16.8668
21.1664
27.6987
32.7359
33.9507
31.4976
27.6538
25.2934
26.1104
29.6144
33.4447
34.7845
32.0474
25.8877
18.993
14.8062
15.874
22.6672
33.4032
44.8565
53.6763
57.5751
55.9285
49.6832
40.7779
31.4135
23.4469
18.0337
15.5185
15.5185
17.1477
19.3258
21.0991
21.874
21.4868
20.0986
17.9987
15.4415
12.612
9.71394
7.08847
5.24346
4.74096
5.99174
9.07597
13.6947
19.2723
25.1371
30.6737
35.3806
38.8526
40.766
40.9324
39.4234
36.6849
33.5393
31.0131
30.022
31.0272
33.8121
37.4923
40.7901
42.5078
42.0461
39.7735
37.0677
35.943
38.3292
45.2364
56.1435
68.9173
80.3814
87.3785
87.9253
81.9803
71.4814
59.6126
49.5852
43.4294
41.2912
41.5337
41.6235
39.4629
34.6069
28.7643
25.1858
26.9812
34.9743
46.1642
53.9124
50.4188
30.9512
-1.88521
-36.171
-52.8151
-31.9812
38.2359
154.546
296.333
430.513
522.188
547.006
500.054
397.356
269.335
149.158
61.109
13.8229
0.662065
6.0729
14.1857
15.4434
8.6654
-1.3853
-8.66929
-9.84631
-5.62189
0.634727
5.55566
7.83458
8.52058
9.66847
12.4745
16.2028
18.5664
17.254
11.5995
3.34994
-3.94852
-6.62552
-2.72778
6.93785
19.0923
29.4588
34.7019
33.9016
28.8688
23.1705
20.3447
22.1701
27.819
34.294
37.9132
36.0998
28.5935
17.5137
6.2992
-1.88903
-5.48533
-4.94708
-2.19015
0.555746
1.81895
1.36596
-0.0374773
-1.31176
-1.73802
-1.2636
-0.359321
0.382814
0.618717
0.382758
-0.0367921
-0.337924
-0.385271
-0.235777
-0.0363443
0.103161
0.167036
0.198267
0.222234
0.205615
0.0889964
-0.134894
-0.369541
-0.448994
-0.253878
0.166394
0.565805
0.620684
0.14796
-0.713372
-1.50337
-1.67635
-0.966546
0.339399
1.43945
1.42062
-0.145026
-2.75681
-5.01467
-5.20708
-2.21146
3.772
11.1056
17.3665
20.4862
19.7916
16.3737
12.553
10.7048
12.0675
16.1713
21.1775
24.9127
26.0048
24.5017
21.6752
19.1876
18.139
18.5368
19.4334
19.5753
18.1317
15.0848
11.122
7.19294
4.07005
2.18476
1.77238
3.1198
6.64239
12.6592
20.988
30.6657
40.076
47.5368
52.0906
54.0507
54.9211
56.6155
60.3104
65.5375
70.0875
70.9256
65.7737
54.5713
39.9657
26.3946
18.0642
16.8157
21.0918
26.7434
29.4112
27.2017
21.9846
18.2502
19.8827
26.6828
33.0586
30.4335
12.8327
-17.1072
-45.45
-50.2308
-10.4032
83.1359
219.881
369.946
493.23
554.162
535.609
445.587
313.66
178.733
73.9642
15.5457
-0.11631
9.40096
23.1552
26.7074
16.8415
-0.0868188
-14.0819
-17.8909
-10.5111
3.38158
16.9236
25.0078
26.4731
23.7286
20.5645
19.7373
21.7109
24.9991
27.5655
28.254
27.4255
26.5942
27.4652
31.0181
37.1078
44.6623
52.2237
58.4881
62.6268
64.378
64.0119
62.2509
60.1354
58.776
58.9979
60.9986
64.2119
67.506
69.6562
69.8533
67.9671
64.4308
59.8558
54.6675
49.0195
43.0295
37.1151
32.103
28.9289
28.0568
29.0016
30.3493
30.3862
28.0445
23.6163
18.7636
15.7408
16.2158
20.3323
26.5379
32.2826
35.213
34.2464
30.0063
24.4694
20.0736
18.7452
21.2547
27.0789
34.6984
42.1272
47.4745
49.4118
47.4822
42.2089
34.9666
27.6132
21.9672
19.2927
19.9781
23.5215
28.7956
34.4487
39.259
42.329
43.1217
41.4282
37.3629
31.407
24.4343
17.6196
12.1779
8.99719
8.31692
9.62396
11.848
13.7914
14.6016
14.0608
12.5587
10.7806
9.29666
8.29436
7.60565
7.00335
6.56285
6.82502
8.59624
12.4388
18.1201
24.3703
29.1812
30.6072
27.7397
21.3777
14.0042
8.97829
9.22755
15.9899
28.1754
42.6677
55.4742
63.2484
64.5299
60.1676
52.7614
45.4058
40.3367
38.1125
37.677
37.2083
35.2552
31.5377
26.9932
23.0829
20.8015
20.0038
19.4782
17.7515
14.1586
9.51806
5.95208
5.87157
10.6415
19.6636
30.4164
39.4854
44.0737
43.2231
38.1295
31.4305
25.8788
23.1156
23.1483
24.7202
26.2669
26.8705
26.687
26.6603
27.7517
30.1682
33.0399
34.7385
33.6803
29.2151
22.1655
14.738
9.79987
9.78318
15.6409
26.294
38.8529
49.6088
55.461
55.2048
50.081
43.2614
38.417
38.0017
42.0932
48.4257
53.6593
55.2631
53.0028
49.1806
47.4251
50.6324
59.1697
70.3539
79.551
82.3692
76.8255
64.3783
49.3132
36.807
30.6276
31.5492
37.1647
43.1112
45.1137
40.9493
31.4903
20.3485
12.1753
10.2444
14.3792
20.3792
21.6685
12.9295
-5.6753
-25.8804
-32.2859
-7.53659
59.7839
167.86
298.717
421.929
504.347
522.165
470.205
364.167
234.678
115.694
32.3278
-6.73034
-9.4006
6.23753
21.3857
24.401
13.9063
-3.37107
-18.0011
-23.3036
-18.2411
-6.88947
4.53626
11.1175
11.3218
6.9798
1.5989
-1.79174
-2.0657
-0.0969328
2.27381
3.64749
4.00248
4.66366
7.38268
13.095
21.089
29.101
34.3571
35.059
31.5345
26.3902
23.4793
26.1066
35.3187
49.1489
63.2582
72.7464
74.3172
67.7854
56.2017
44.5194
37.419
37.2949
43.3192
51.971
58.7263
60.0768
54.9447
44.9054
33.2346
23.3467
17.4126
15.7629
17.2141
19.9864
22.643
24.582
25.9394
27.1087
28.2476
29.0682
28.9779
27.4248
24.2235
19.7063
14.6763
10.2264
7.49694
7.39839
10.3205
15.8898
22.9038
29.5617
34.0017
34.969
32.3175
27.0779
21.029
15.9722
13.0652
12.5268
13.7963
15.9763
18.2659
20.167
21.4476
22.0177
21.8888
21.254
20.566
20.4428
21.353
23.2381
25.3473
26.4773
25.5627
22.2995
17.4156
12.3846
8.72037
7.25704
7.8344
9.55014
11.3784
12.7355
13.6416
14.4337
15.3025
16.0387
16.189
15.4974
14.2695
13.3439
13.6495
15.6551
19.1245
23.3728
27.8291
32.4366
37.5019
43.0176
47.9556
50.1842
47.3327
38.262
24.246
8.9504
-3.06866
-8.66826
-7.89012
-4.00168
-1.57784
-3.66075
-9.78834
-16.3361
-19.2367
-17.4925
-15.0367
-19.1386
-35.5139
-62.5672
-88.3504
-92.9692
-56.4914
30.7687
160.621
306.43
430.927
499.624
494.073
418.969
299.86
172.583
69.3513
7.72596
-13.0536
-7.6786
4.59573
9.29715
1.80567
-13.389
-27.6902
-34.2747
-31.6531
-23.5182
-15.7118
-12.5394
-14.617
-19.2019
-22.4102
-21.7449
-17.4239
-11.8984
-8.07779
-7.46534
-9.32622
-11.2931
-10.9358
-7.28775
-1.40678
4.33759
7.79338
8.4395
7.82749
8.77083
13.7387
23.3832
36.0622
48.6428
58.1232
63.1262
64.3975
64.0388
63.9732
64.6112
64.5638
61.6052
54.3028
43.2972
31.3949
22.3405
18.9278
21.5231
27.8463
34.1396
37.0714
35.3331
30.1052
24.2313
20.6416
20.9169
24.7069
30.1782
35.1033
37.9334
38.3256
36.9822
35.05
33.4932
32.761
32.8228
33.4204
34.3169
35.3952
36.6056
37.856
38.9512
39.6227
39.6235
38.8275
37.2895
35.2519
33.1066
31.3181
30.3146
30.3589
31.4387
33.2267
35.1502
36.5603
36.9356
36.0318
33.9113
30.8567
27.2357
23.4013
19.6722
16.3663
13.8086
12.2561
11.7553
12.0342
12.5504
12.7403
12.3715
11.7883
11.8468
13.4864
17.1165
22.163
27.0982
30.0463
29.7248
26.24
21.2662
17.4305
17.1523
21.511
29.7369
39.6027
48.5095
54.673
57.7673
58.699
58.6992
58.3265
57.0244
53.5362
46.9283
37.5563
27.2857
18.7024
13.6959
12.2683
12.4012
11.234
6.97087
0.331216
-5.55864
-7.09757
-3.02917
3.64286
6.30736
-1.62215
-21.5225
-45.6516
-57.3475
-36.4734
31.4813
146.606
290.639
430.715
530.082
561.635
518.345
415.881
286.169
164.85
78.2729
35.608
28.912
40.0918
50.6927
49.7027
36.2479
17.0126
0.76808
-6.68328
-4.76499
2.85249
11.145
16.5489
18.2451
17.6552
16.9219
17.4841
19.4835
22.0564
24.0555
24.6638
23.6246
21.1538
17.7676
14.1947
11.3653
10.3446
12.1042
17.1589
25.2321
35.1437
45.0346
52.8932
57.218
57.5809
54.8682
51.0634
48.5838
49.3629
54.0195
61.4873
69.3411
74.7579
75.7278
71.9507
64.9577
57.3615
51.5902
48.7459
48.1755
47.9637
46.061
41.4317
34.6186
27.4696
22.2268
20.4911
22.5789
27.5145
33.5474
38.8589
42.1208
42.7502
40.9058
37.3572
33.3146
30.2012
29.3126
31.3804
36.1951
42.5162
48.4256
52.0594
52.4192
49.8563
45.9424
42.7373
41.7849
43.3333
46.1832
48.2604
47.6465
43.568
36.8633
29.7002
24.6775
23.7279
27.3201
34.3001
42.4102
49.2202
53.0472
53.4822
51.352
48.2075
45.6172
44.5874
45.3141
47.2918
49.6426
51.4735
52.1182
51.2291
48.7743
45.0158
40.4981
36.0081
32.4367
30.5186
30.5171
32.0057
33.9068
34.8503
33.7518
30.3621
25.4995
20.7869
17.9485
17.9575
20.4502
23.7429
25.5194
23.9206
18.5332
10.771
3.40491
-0.597868
0.592563
6.79325
15.8244
24.426
29.648
30.0581
26.2168
20.2441
14.7497
11.6866
11.6644
13.9733
17.1779
19.8845
21.278
21.2395
20.1334
18.5134
16.9512
16.013
16.2467
18.0327
21.3026
25.3157
28.7468
30.1807
28.8302
25.0634
20.359
16.6039
15.0674
15.643
16.8574
16.7154
13.9363
8.85258
3.39846
0.134283
0.835324
5.45658
12.0865
17.9317
20.7741
20.0738
17.1143
14.1531
13.1114
14.5618
17.5478
20.2489
21.0266
19.222
15.3059
10.4147
5.66498
1.70473
-1.27637
-3.19996
-3.7581
-2.37635
1.47564
7.85334
16.1077
25.0345
33.3126
39.9442
44.4294
46.6259
46.4904
43.9845
39.2685
33.0156
26.4946
21.1603
17.8623
16.1704
14.4125
10.6521
4.16266
-3.58616
-9.36331
-10.1879
-5.92729
-0.706161
-1.59106
-14.4074
-38.4593
-63.2251
-69.7978
-37.7443
44.9402
173.377
323.546
458.469
541.039
548.221
480.209
360.23
224.993
110.189
37.6381
9.60091
12.0324
24.2074
29.4033
21.4912
4.99513
-10.2177
-15.9216
-10.227
2.13681
13.3772
17.4706
13.3897
5.13478
-1.05391
-0.435188
7.6898
19.8689
30.6212
35.4419
33.046
25.7875
18.2331
14.7851
17.6126
25.8586
36.3683
45.4294
50.5782
51.5941
50.2787
49.2582
50.5077
54.3824
59.6136
64.1853
66.5445
66.4526
65.0272
63.9984
64.6445
67.0263
69.9449
71.6187
70.676
66.9013
61.3349
55.694
51.4522
49.0776
47.8284
46.2028
42.8081
37.2054
30.3021
24.0712
20.6932
21.4934
26.1746
32.7467
38.2598
40.0682
37.0592
30.2377
22.3239
16.4947
14.8572
17.4251
22.1498
26.0235
26.6909
23.7201
18.8465
15.063
15.0553
19.8312
28.261
37.7169
45.3951
49.559
50.0617
47.9713
44.6537
40.9393
36.8702
32.1136
26.6884
21.4695
18.0841
18.2012
22.5859
30.4468
39.4606
46.5208
48.9005
45.3273
36.5146
24.9345
13.9364
6.57142
4.58152
7.9196
14.9405
23.1305
30.0467
34.0896
34.8517
32.9947
29.8072
26.6888
24.7599
24.6716
26.5722
30.1482
34.7024
39.2938
42.9797
45.1329
45.7165
45.3556
45.1107
46.0109
48.5533
52.4184
56.5541
59.5866
60.3538
58.3028
53.5954
46.9294
39.2252
31.354
24.0045
17.6706
12.6731
9.14272
6.96841
5.7766
5.01316
4.13357
2.82721
1.16203
-0.431488
-1.33456
-0.990216
0.881636
4.18275
8.46335
13.0415
17.1672
20.1997
21.7798
21.9688
21.2969
20.6547
21.0062
22.9913
26.5813
30.9736
34.8319
36.8126
36.1505
33.019
28.4717
23.9831
20.8206
19.5707
20.048
21.5907
23.5225
25.474
27.37
29.1261
30.314
30.0989
27.5906
22.4656
15.4933
8.58308
4.19304
4.29453
9.37129
17.9752
27.1264
33.4413
34.5101
29.9056
21.3662
12.0728
5.34631
3.33621
6.25653
12.4571
19.2489
24.0874
25.5948
24.0053
20.8895
18.3296
17.9395
20.1692
24.1869
28.3621
31.0994
31.6178
30.2991
28.4432
27.5538
28.5217
31.1278
34.1425
35.989
35.6419
33.286
30.3589
28.9171
30.6227
35.8774
43.5739
51.6198
57.9656
61.5733
62.7751
62.8077
62.7895
62.768
61.4629
56.9464
47.9276
34.8876
20.3148
7.77271
0.229964
-1.4135
1.28974
5.31568
7.93095
8.09284
6.50334
4.20844
0.732747
-6.66771
-21.4895
-44.448
-69.777
-84
-69.062
-9.55738
98.7296
243.199
395.269
518.468
581.038
567.773
485.789
361.522
230.293
123.148
56.7603
30.3846
30.2873
38.6072
41.9594
35.9444
24.3174
14.3904
11.7847
17.3464
27.3453
36.1404
39.3845
35.9737
28.0014
19.1792
12.8575
10.6952
12.4218
16.484
21.0199
24.6466
26.8152
27.7531
28.1502
28.7562
30.0284
31.9428
34.0482
35.7616
36.7765
37.3574
38.3179
40.6385
44.9103
50.922
57.6551
63.7145
67.9536
69.9324
69.9594
68.7398
66.9026
64.7309
62.2433
59.4975
56.8175
54.7131
53.5127
52.9934
52.3447
50.5908
47.254
42.813
38.5777
35.9675
35.5942
36.7507
37.7057
36.7131
33.1618
28.1355
23.9595
22.914
25.8308
31.414
36.7467
38.7658
35.9139
29.0454
21.0698
15.5089
14.7372
18.831
25.5979
31.7138
34.3339
32.3541
26.755
19.9764
14.7399
12.9321
15.0159
20.1057
26.5156
32.4454
36.5202
38.057
37.0816
34.1777
30.2489
26.2443
22.9039
20.591
19.2729
18.6535
18.3778
18.1859
17.9303
17.4755
16.6018
15.048
12.7225
9.96039
7.60882
6.78385
8.33418
12.2652
17.4653
21.961
23.6519
21.2064
14.6848
5.58345
-3.7239
-10.8801
-14.3723
-13.9621
-10.5993
-5.93104
-1.64684
1.08746
1.93856
1.39169
0.442943
0.106851
0.918114
2.64352
4.377
5.03948
4.08552
2.04518
0.534114
1.59915
6.64141
15.4666
26.0419
35.2202
40.1672
39.7857
35.3577
29.9985
27.1549
28.922
35.074
43.316
50.5804
54.6169
54.9889
52.9741
50.5282
49.0037
48.4093
47.6091
45.2529
40.7881
34.8914
29.0662
24.6972
22.1952
20.7902
19.1067
16.152
12.0941
8.32817
6.7664
8.74658
14.1811
21.4354
28.0204
31.7447
31.7312
28.7819
24.9176
22.3363
22.3264
24.6787
27.887
30.0191
29.7972
27.3094
23.967
21.72
21.9556
24.6991
28.5836
31.6324
32.4206
30.9354
28.6047
27.4422
28.7935
32.4391
36.6287
39.0706
38.3124
34.6753
30.1451
27.238
27.49
30.4726
33.9435
35.0756
32.0645
25.1908
16.735
9.81589
6.82764
8.34034
13.0073
18.4195
22.3398
23.6285
22.4562
19.8727
17.1295
15.1775
14.513
15.2542
17.2205
19.9014
22.4175
23.6823
22.8533
19.9003
15.9179
12.8645
12.7219
16.4607
23.3906
31.3208
37.5145
39.9599
38.2838
33.8297
28.8916
25.5581
24.8007
26.2532
28.7102
30.9829
32.6099
34.0709
36.467
40.9008
47.882
56.9953
66.8989
75.6067
80.971
81.2863
75.8997
65.6298
52.7378
40.2874
31.002
26.0808
24.6235
24.1394
22.0567
17.4737
12.0348
9.11396
11.4325
18.3648
24.7841
22.8257
6.43155
-23.3135
-55.1335
-69.368
-45.0374
30.2876
152.298
297.85
430.941
514.97
526.316
463.309
346.595
210.814
91.3923
12.2914
-20.3084
-16.505
4.83936
25.4155
34.2869
29.8494
17.2896
3.89329
-5.02146
-7.83281
-5.94503
-1.90055
2.2879
5.76131
8.47026
10.51
11.7609
12.0195
11.3505
10.2514
9.43293
9.3776
10.0307
10.8901
11.4568
11.7308
12.3896
14.4928
18.8758
25.6095
33.869
42.3022
49.6837
55.4626
59.8821
63.6036
67.0715
70.0144
71.4181
70.0488
65.2793
57.7653
49.5371
43.3342
41.4019
44.2983
50.3449
56.1147
57.8625
53.2958
42.8286
29.6223
18.2806
12.7493
14.4349
21.5072
29.7844
34.7849
33.9029
27.59
18.9505
12.0129
9.64736
12.2531
17.8675
23.5221
26.9833
27.8517
27.4384
27.6005
29.3305
32.0045
33.7448
32.6499
28.1141
21.4139
15.192
12.1257
13.5314
18.6779
25.1578
30.0855
31.4674
29.0549
24.3161
19.6323
17.1827
18.0551
21.9265
27.3465
32.3924
35.3764
35.3483
32.2884
27.0188
20.925
15.5837
12.3711
12.1125
14.8434
19.7578
25.3971
30.0666
32.3779
31.7338
28.558
24.141
20.1228
17.8044
17.5868
18.815
20.1358
20.2282
18.5572
15.755
13.3962
13.2409
16.3122
22.2918
29.5731
35.9719
39.7449
40.3925
38.8369
36.9012
36.3881
38.2564
42.3124
47.5315
52.7702
57.432
61.705
66.251
71.5478
77.2803
82.1566
84.3062
82.1172
75.1309
64.5436
53.004
43.686
38.9676
39.2951
42.8305
46.2038
46.1649
41.3933
33.4571
26.17
23.3738
26.1537
31.1291
31.2654
19.5043
-6.12872
-38.5606
-61.5296
-54.4725
-1.16389
101.447
238.543
379.845
489.008
536.506
510.606
421.609
297.478
172.849
76.3286
21.5035
5.04654
11.8245
23.7861
28.1349
21.2968
7.72466
-4.8031
-10.3576
-7.82844
-0.640917
5.9583
8.12951
5.35794
0.259281
-3.28177
-2.40779
3.22651
11.4125
18.612
21.6994
19.3636
12.6009
4.21101
-2.37794
-4.41697
-0.770227
7.8305
19.2347
30.7907
40.3388
46.8846
50.7076
52.917
54.7132
56.7384
58.8318
60.2815
60.3901
59.0034
56.6836
54.4228
53.069
52.8127
53.0523
52.7318
50.9617
47.5567
43.1649
38.9015
35.6926
33.7155
32.272
30.1885
26.5292
21.2229
15.2439
10.2278
7.71012
8.38115
11.7428
16.3405
20.4472
22.845
23.3098
22.5594
21.7097
21.538
21.9618
22.036
20.5049
16.6311
10.845
4.80486
0.746093
0.39128
3.97877
9.97353
15.7032
18.6628
17.8231
14.2129
10.4003
9.10085
11.6588
17.2606
23.3545
27.0662
26.8101
23.1641
18.496
15.5635
15.9248
19.1085
23.0315
25.3889
25.1463
23.2007
21.7883
22.9965
27.2956
33.0157
37.1347
36.9567
31.7249
23.2279
15.0302
10.7275
12.1666
18.569
26.9908
33.8289
36.5612
34.8385
30.4458
26.2523
24.7568
26.9623
32.0609
37.9612
42.2951
43.3876
40.8006
35.3398
28.6725
22.8121
19.6609
20.6621
26.516
36.9237
50.4257
64.4899
75.9849
82.0209
80.923
72.9501
60.3996
46.9499
36.4136
31.3484
32.0693
36.4886
40.9116
41.5573
36.264
25.6921
13.4139
4.6241
3.75959
11.92
25.3593
36.1758
35.5381
18.5373
-11.4026
-41.0175
-50.2319
-19.4394
61.486
186.363
331.641
462.49
544.243
554.761
492.53
376.99
240.963
118.507
33.3973
-7.14274
-11.5228
2.95101
18.8856
25.5942
21.3718
11.2579
2.35974
-0.492827
3.2283
10.4502
16.8866
19.4821
17.6527
12.9922
7.98348
4.62865
3.70942
4.86838
7.21593
9.97304
12.7831
15.6182
18.4633
21.0586
22.8925
23.4592
22.6305
20.9147
19.4313
19.5644
22.4212
28.3319
36.6301
45.8344
54.171
60.2061
63.2994
63.6817
62.1489
59.568
56.4721
52.9534
48.8709
44.2004
39.2758
34.753
31.3123
29.2886
28.4658
28.1733
27.6339
26.3625
24.3878
22.1846
20.3798
19.4224
19.4131
20.1679
21.4332
23.0764
25.1001
27.4633
29.8432
31.5396
31.6634
29.5786
25.3902
20.1883
15.8388
14.3248
16.8899
23.3786
32.1258
40.5142
46.0018
47.1738
44.3295
39.309
34.6202
32.2693
32.852
35.3498
37.7275
38.0275
35.4012
30.5491
25.3478
21.8706
21.3275
23.4867
26.8725
29.6051
30.398
29.1556
26.8619
24.8687
24.0429
24.2954
24.7615
24.4859
23.1419
21.2951
20.0214
20.1214
21.4616
22.9192
23.0316
20.9816
17.284
13.6806
12.2164
14.0018
18.414
23.2808
26.02
25.1176
21.0725
16.2095
13.4096
14.4626
19.0039
24.6882
28.54
28.7231
25.7033
22.1097
21.3446
25.7136
35.1238
47.0721
57.9051
64.6228
66.2234
63.8893
60.0115
56.7019
54.6902
53.2036
50.7948
46.5044
40.5756
34.2725
28.9655
25.1554
22.1632
18.7637
14.3547
9.77728
7.00339
7.60966
10.8887
13.0124
8.37548
-6.90616
-30.8506
-53.2671
-57.3302
-25.4874
52.2392
171.269
310.583
437.789
519.792
534.849
480.775
375.592
250.281
136.925
57.5026
18.0245
9.90096
16.9334
23.9451
22.883
14.1093
3.33593
-3.27614
-2.92115
2.88395
10.0183
14.5782
14.9482
12.105
8.37742
5.7462
4.801
4.83149
4.72829
3.93411
2.8152
2.32579
3.32348
6.05034
10.0843
14.6938
19.2753
23.5676
27.5609
31.2598
34.5404
37.2259
39.3007
41.0601
43.0305
45.6713
49.0434
52.6772
55.7578
57.5466
57.8046
56.9639
55.933
55.6208
56.4199
57.9199
59.0127
58.3624
55.0354
48.9982
41.2351
33.4037
27.1576
23.4428
22.1063
22.0281
21.7299
20.1627
17.2587
13.9428
11.5812
11.163
12.6698
14.9981
16.4898
15.7853
12.5291
7.54618
2.40935
-1.34388
-2.91278
-2.49763
-1.04092
0.351199
0.959809
0.696926
-0.0257869
-0.655527
-0.841398
-0.578514
-0.120917
0.230948
0.315449
0.167151
-0.0551251
-0.194538
-0.188183
-0.0787883
0.0401885
0.0958167
0.0758144
0.0206822
-0.0158251
-0.00618738
0.0361081
0.0712874
0.0638144
0.00783847
-0.0677542
-0.116912
-0.105893
-0.0374056
0.0452426
0.0782762
0.0129733
-0.152029
-0.361116
-0.5248
-0.569169
-0.48914
-0.375022
-0.38768
-0.677599
-1.27185
-1.97928
-2.37422
-1.90117
-0.0944057
3.15817
7.43043
11.78
15.0395
16.3146
15.4958
13.5235
12.2042
13.5599
18.9393
28.2893
39.9862
51.3959
59.9747
64.4004
65.1435
64.121
63.5536
64.6154
66.6549
67.508
64.8245
57.6907
47.5609
37.8175
32.0663
32.0977
36.7758
42.6699
46.1848
45.9028
43.513
42.4492
44.8405
48.7546
47.9785
35.3614
8.51412
-25.2879
-48.5124
-38.8204
20.9253
132.534
277.593
421.212
523.763
555.888
510.034
403.203
269.628
146.882
61.8429
22.6625
19.6019
33.1823
44.8593
44.8907
34.2398
20.7951
12.9754
14.5591
23.2247
32.8566
37.6232
35.2252
27.6246
19.2632
14.1808
13.826
16.6729
19.565
19.758
16.4153
10.8182
5.3854
2.23325
2.13078
4.33984
7.26356
9.40839
10.0935
9.58991
8.74086
8.38256
8.92131
10.2618
12.046
13.9952
16.1291
18.7399
22.1563
26.4473
31.2391
35.7533
39.0611
40.4398
39.6679
37.1203
33.6124
30.0651
27.1448
25.0494
23.5361
22.1571
20.5597
18.677
16.7122
14.9555
13.5805
12.5781
11.8747
11.5339
11.8513
13.2073
15.7133
18.875
21.5495
22.3404
20.3016
15.5829
9.60705
4.58188
2.52034
4.25059
8.95076
14.4885
18.4154
19.1088
16.4755
11.8834
7.40924
4.8445
4.9838
7.5041
11.3836
15.5271
19.218
22.1989
24.4551
25.9434
26.4935
25.9362
24.3275
22.0681
19.8016
18.1364
17.3627
17.335
17.5818
17.5619
16.9156
15.5847
13.7784
11.8481
10.1628
9.03621
8.69134
9.22322
10.5386
12.3036
13.9601
14.857
14.4778
12.6852
9.86383
6.8743
4.79881
4.5527
6.50461
10.2671
14.771
18.629
20.6688
20.417
18.3134
15.5392
13.5209
13.3387
15.3266
19.0582
23.7078
28.5733
33.4642
38.7422
45.0045
52.5965
61.2222
69.8511
76.9596
80.9987
80.9156
76.5704
68.9269
59.9286
52.0007
47.2274
46.4453
48.6812
51.3791
51.569
47.5771
40.3663
33.5039
31.3358
36.0158
45.0382
51.1372
45.4624
23.1199
-11.5971
-43.5456
-50.6596
-12.8051
77.958
210.647
356.081
475.751
535.64
519.128
433.279
305.691
173.396
68.8445
9.0727
-7.67844
2.64595
19.45
27.0618
20.1551
3.38356
-13.4669
-21.6598
-17.8498
-4.9043
10.4631
21.4664
24.3549
19.5459
10.6866
2.52337
-1.22145
0.91931
8.07984
17.8438
27.3484
34.2372
37.2196
36.2107
32.1487
26.6027
21.281
17.5512
16.1003
16.8473
19.1453
22.1873
25.4197
28.75
32.4327
36.7033
41.3859
45.7481
48.745
49.5643
48.1714
45.4994
43.0924
42.3187
43.5532
45.8089
47.1017
45.44
39.9549
31.5536
22.6846
16.2666
14.2971
16.8674
22.1206
27.1962
29.6724
28.7446
25.519
22.2896
21.2157
23.1318
27.1233
31.0579
32.7392
31.0313
26.3696
20.4455
15.3103
12.4222
12.1152
13.6847
15.9274
17.7824
18.7463
18.9385
18.9016
19.3116
20.73
23.423
27.2219
31.4368
34.9094
36.3045
34.6341
29.8227
23.0004
16.2621
11.881
11.2917
14.351
19.3104
23.5858
24.9762
22.7138
17.7919
12.3963
8.75336
8.02456
9.84081
12.6992
14.9559
15.8201
15.7739
16.1897
18.3868
22.6929
28.0698
32.536
34.1723
32.1654
27.3263
21.8052
18.1472
18.1678
22.1939
29.0022
36.4234
42.27
45.142
44.7938
42.0092
38.1618
34.7294
32.9527
33.6772
37.3013
43.7413
52.3976
62.1864
71.7067
79.5365
84.5608
86.1931
84.4188
79.6969
72.8281
64.867
57.0466
50.6099
46.4927
44.9679
45.5146
47.1393
49.0911
51.5302
55.5324
62.0838
70.4232
76.823
75.1034
59.4844
28.9692
-8.9475
-37.8772
-36.9607
10.7278
109.12
243.901
384.439
493.161
539.014
509.322
414.715
284.844
156.756
61.151
12.4422
6.43828
25.7166
49.2897
61.7098
57.7792
41.721
22.4542
8.08946
2.42122
4.53949
10.8441
17.7114
23.2084
27.2236
30.4564
33.2529
35.1023
34.9921
32.2212
27.0478
20.7605
15.1793
11.9338
11.9286
15.2202
21.2493
29.1939
38.2131
47.502
56.2471
63.6428
69.0653
72.3531
74.0114
75.1446
77.0435
80.5614
85.5895
90.9626
94.9474
96.1462
94.349
90.7913
87.5176
86.059
86.1224
85.1664
79.3849
65.8437
44.7219
20.2896
-0.26695
-9.94063
-5.49333
10.4122
29.9248
43.4803
44.3747
32.0154
12.045
-6.7586
-17.0636
-16.4517
-7.86495
3.01844
11.6485
17.1482
21.8962
28.5007
36.3244
40.1324
32.1537
6.61757
-35.9168
-87.2425
-134.359
-165.212
-174.266
-164.866
-147.122
-132.528
-128.285
-134.291
-144.122
-149.111
-143.034
-124.927
-98.8623
-71.3058
-47.8753
-31.2803
-21.2248
-15.7853
-13.0511
-11.9784
-12.1804
-13.1771
-13.9122
-13.0054
-9.56748
-3.93642
2.27131
6.92532
8.52117
6.98986
3.67971
0.542376
-0.952023
-0.504044
1.10486
2.75695
3.87224
4.83513
6.70801
10.4287
16.0144
22.2942
27.3796
29.6472
28.7067
25.8083
23.4243
24.1563
29.4685
38.8552
49.8668
59.027
63.2508
61.1275
53.4771
42.934
32.7748
25.5801
22.3756
22.6141
24.8737
27.7591
30.4254
32.4719
33.4465
32.5299
28.8612
22.4422
14.9563
9.62625
9.68762
16.0185
25.3642
30.7472
24.7207
4.44023
-24.0102
-44.9472
-37.647
14.8866
116.54
252.758
392.656
498.7
540.386
506.085
407.69
275.866
147.976
54.0883
7.14884
1.18169
17.4479
34.8634
39.4469
28.6916
9.73171
-6.68641
-12.7103
-7.04399
5.5414
17.802
24.2495
23.651
18.7772
14.0328
12.6395
14.9906
18.8812
21.1675
19.7081
14.4838
7.4388
1.35497
-1.47688
-0.0860382
5.11666
12.8379
21.526
29.7846
36.5228
41.0082
42.9985
42.9362
42.0016
41.7995
43.673
47.9439
53.5474
58.3939
60.3868
58.589
53.8618
48.533
45.2019
45.3153
48.3319
51.9888
53.55
51.3361
45.6567
38.6086
32.8681
30.1879
30.4707
31.9319
32.2233
29.8337
24.9585
19.369
15.4069
14.7167
17.4311
22.2206
27.1023
30.4957
31.9288
32.0568
32.0735
32.9221
34.7681
36.9864
38.5895
38.7862
37.3381
34.5646
31.0891
27.5605
24.5434
22.5876
22.3118
24.3034
28.7795
35.1856
42.048
47.3224
49.1991
47.001
41.6582
35.4029
30.7375
29.173
30.4239
32.5512
33.0344
30.2189
24.3398
17.5283
12.7595
12.2937
16.4549
23.4125
30.0862
33.6898
33.0971
29.3306
24.9514
22.7029
24.1161
28.7667
34.5115
38.5439
38.7339
34.6221
27.6308
20.4266
15.7412
15.1798
18.5443
23.9794
28.8908
31.2388
30.6117
28.5447
27.8694
31.34
40.1718
53.2271
67.3181
78.5515
84.0908
83.4545
78.6651
73.1423
69.8899
69.9165
71.7138
72.0665
67.762
57.3053
41.7624
24.3355
8.93995
-1.45878
-5.93237
-5.64781
-3.00357
-0.388367
0.790244
0.403411
-0.770423
-1.74731
-1.93762
-1.36294
-0.477422
0.204441
0.415343
0.220612
-0.110677
-0.318971
-0.304041
-0.136886
0.0389202
0.126123
0.12884
0.118628
0.152269
0.211637
0.214055
0.0863637
-0.154216
-0.380014
-0.423102
-0.200456
0.190335
0.485957
0.401229
-0.169141
-1.02116
-1.69595
-1.72872
-0.971642
0.210218
1.03506
0.70636
-1.05753
-3.66259
-5.70125
-5.48874
-1.86102
5.1572
14.1841
22.9527
29.2382
31.8046
30.9052
28.0823
25.3677
24.2892
25.1919
27.2129
28.9083
29.1861
28.0398
26.6816
26.9906
30.5551
37.8033
47.6769
58.0156
66.4526
71.3571
72.3531
70.1916
66.1231
61.1831
55.8184
50.0279
43.8309
37.6483
32.2528
28.2801
25.6827
23.6391
21.1675
18.1421
15.9419
16.9801
22.9922
32.9211
41.9154
42.7531
29.7984
3.90431
-24.515
-36.7958
-12.4212
61.5266
182.061
327.582
463.09
551.978
569.674
513.125
401.762
269.461
151.194
70.413
32.5576
26.8673
34.6236
39.1592
32.7495
17.7156
2.31796
-5.48081
-2.75438
7.36072
18.2165
23.7587
21.6717
13.9991
5.32022
-0.11264
-0.543269
2.8705
7.30181
10.1771
10.5922
9.53212
8.99042
10.683
15.1472
21.6566
28.8375
35.4946
41.1292
45.9148
50.2741
54.421
58.1842
61.1821
63.158
64.1903
64.613
64.7225
64.5197
63.7173
62.0403
59.6069
57.0793
55.4059
55.26
56.5238
58.1897
58.8135
57.2952
53.5238
48.4693
43.6332
40.1784
38.2798
37.1182
35.5399
32.9662
29.9519
27.9839
28.5782
32.193
37.6304
42.3566
43.6448
39.967
31.8899
21.9857
13.7831
10.2789
12.7205
20.1916
30.0977
39.23
44.8922
45.6657
41.6502
34.2655
25.7928
18.7918
15.446
16.8964
22.7276
30.8754
38.1785
41.5376
39.2795
32.0725
22.8248
15.4482
12.9929
16.083
22.5288
28.4157
30.1632
26.4628
19.0142
11.6131
8.06749
10.0945
16.374
23.2824
26.8708
24.9544
18.1515
9.34952
1.99646
-1.74371
-1.92793
-0.423085
0.481476
-0.461381
-2.76885
-4.63558
-4.09332
-0.195312
6.42396
13.8383
19.7232
22.3638
21.349
17.7588
13.8793
12.569
16.4124
26.8065
43.2193
62.9455
81.6319
94.582
98.4424
92.5714
79.4077
63.5596
49.9436
41.7892
39.4209
40.365
40.7106
37.0865
28.3631
16.3283
5.01002
-1.15079
0.398413
8.50856
17.9708
21.2003
11.7775
-11.3242
-40.7558
-61.0204
-52.847
-0.789692
98.7769
232.988
374.007
487.098
542.535
526.499
446.227
327.012
202.357
101.641
40.605
18.4095
21.7001
32.9206
38.5358
33.5369
20.9701
7.83746
0.210504
0.167865
5.65219
12.5632
17.3815
18.7522
17.436
15.1184
13.1078
11.7444
10.6765
9.55045
8.48612
8.00459
8.55564
10.0963
12.1018
14.0317
15.9015
18.4995
23.0139
30.2438
39.8804
50.3525
59.4053
65.1382
66.9274
65.7025
63.4078
61.9439
62.1821
63.5929
64.6697
63.875
60.5517
55.2893
49.5679
44.9199
42.108
40.7752
39.7326
37.6856
33.9782
28.9546
23.7811
19.8572
18.1416
18.7207
20.7951
23.0495
24.2171
23.595
21.3204
18.3129
15.9098
15.3201
17.0979
20.8502
25.3317
28.9343
30.3924
29.3896
26.7585
24.1308
23.1701
24.7476
28.4808
32.8852
36.075
36.6592
34.377
30.161
25.6303
22.3125
21.012
21.6269
23.4383
25.6343
27.7315
29.6613
31.5292
33.2596
34.4045
34.271
32.3062
28.5057
23.581
18.7613
15.3132
14.0272
14.935
17.391
20.4481
23.3072
25.6005
27.3812
28.8708
30.1402
30.9264
30.69
28.8818
25.2812
20.2365
14.6963
10.0016
7.49855
8.08522
11.8345
17.8409
24.3984
29.527
31.7165
30.6161
27.3411
24.1695
23.653
27.4652
35.4964
45.6494
54.5026
58.6024
55.8464
46.3693
32.5638
18.2472
7.31553
2.391
3.92582
10.0496
17.225
21.551
20.3292
13.3225
3.08334
-6.04249
-10.0781
-7.86931
-2.47073
-0.265472
-7.5866
-26.0532
-49.0024
-61.4843
-44.9348
14.6906
118.718
251.628
383.776
480.727
515.687
479.744
385.32
261.215
141.477
53.0345
7.38039
-0.619201
12.8379
29.4365
36.6474
31.3178
18.2243
5.35131
-1.12914
0.326646
6.90835
13.9489
17.8216
17.5948
14.8135
11.929
10.5487
10.5688
10.5712
9.06779
5.72512
1.80017
-0.455386
0.965105
6.69053
15.6107
25.4825
34.1306
40.5292
45.1371
49.3129
54.1984
59.7813
64.7421
67.2068
65.9571
61.3432
55.3014
50.4079
48.4963
49.648
52.1641
53.551
51.9433
47.1288
40.5778
34.4842
30.4199
28.4339
27.1467
24.7745
20.4411
14.9501
10.5099
9.53547
13.2137
20.6701
29.2326
35.6525
37.6043
34.6558
28.2395
20.749
14.3528
10.2028
8.37785
8.40779
9.87917
12.6626
16.6524
21.3172
25.5216
27.8829
27.5091
24.6295
20.6345
17.3989
16.2472
17.1986
18.9872
19.8793
18.7909
16.0037
13.0196
11.6368
12.8292
16.1277
19.8812
22.2143
22.0703
19.7044
16.3659
13.4373
11.6159
10.6535
9.76358
8.35456
6.55571
5.17373
5.12933
6.77972
9.60093
12.4486
14.2233
14.5036
13.7469
12.9506
13.0154
14.214
16.0712
17.6738
18.1719
17.1655
14.8035
11.6449
8.45974
6.11315
5.52615
7.58576
12.8974
21.4239
32.2141
43.4562
52.9343
58.7307
59.847
56.4508
49.6668
41.0836
32.2605
24.4392
18.4545
14.6961
12.9986
12.5315
11.9174
9.7691
5.53441
0.169053
-3.97736
-4.36111
-0.131965
6.37762
9.8183
4.25777
-12.7816
-36.6089
-54.3416
-48.0818
-1.84266
90.3671
219.057
359.504
478.538
545.648
543.949
476.348
364.183
238.957
130.792
58.5315
25.3733
21.193
29.63
36.1745
33.5868
22.7933
9.82657
1.13097
-0.118671
4.91597
12.2301
17.6703
19.1322
17.1884
14.1438
12.369
12.969
15.4319
18.2251
19.8039
19.4147
17.3505
14.6994
12.8617
13.0976
16.208
22.3222
30.7682
40.0985
48.4016
53.9298
55.8492
54.7261
52.3893
51.0967
52.3567
56.0354
60.3082
62.5746
60.8935
55.1463
47.2438
40.2162
36.6688
37.4566
41.3047
45.5501
47.5431
45.9052
40.986
34.3798
27.9104
22.7415
19.0907
16.5773
14.8266
13.8508
13.958
15.3224
17.598
19.9142
21.2986
21.2514
20.073
18.7066
18.185
19.0328
21.0017
23.2889
25.0696
25.9793
26.2361
26.3502
26.6504
26.9744
26.7479
25.4077
22.8852
19.8176
17.3236
16.4521
17.6159
20.3349
23.4281
25.5471
25.7652
23.933
20.6631
16.9972
13.9496
12.1308
11.5765
11.7969
11.9883
11.3287
9.28286
5.84437
1.63154
-2.23345
-4.47794
-4.17602
-1.20085
3.58776
8.55762
11.8842
12.2772
9.54031
4.7068
-0.327174
-3.52675
-3.50558
-0.066603
5.69733
11.7579
15.8193
16.0793
11.8609
3.94493
-5.5031
-13.4382
-16.796
-13.5014
-3.3014
11.9316
28.6488
42.766
51.1012
52.5068
48.1637
40.8731
33.6794
28.5217
25.6012
23.7476
21.479
18.0434
13.7783
9.61854
6.21041
3.40129
0.605113
-2.17288
-3.53902
-1.09919
6.74217
18.5097
28.6524
29.2733
14.5902
-13.8183
-44.1439
-56.4984
-30.4007
45.1289
163.674
300.232
418.403
483.543
476.26
400.114
279.931
151.558
47.8778
-12.6179
-29.9618
-18.6643
1.55602
15.2706
16.7344
9.51855
1.79566
0.538094
7.77223
20.3492
32.5933
39.8339
40.7758
37.67
34.5939
35.0577
40.2709
48.8294
57.7457
64.1052
66.4445
65.2196
62.257
59.5933
58.3688
58.3592
58.3531
57.1087
54.2969
50.8442
48.4406
48.4805
51.0748
54.766
57.1846
56.3174
51.6691
44.6283
37.7954
33.632
33.1847
35.5826
38.5556
39.6445
37.4157
32.0509
25.0767
18.4839
13.7639
11.3458
10.6292
10.4724
9.81905
8.16785
5.74392
3.38573
2.23584
3.32879
7.16532
13.3895
20.7176
27.2359
31.0517
31.0808
27.6139
22.335
17.6954
15.8771
17.8242
22.8247
28.8604
33.5496
35.2024
33.461
29.2466
24.1173
19.4541
15.9398
13.5748
12.12
11.5978
12.4672
15.3304
20.3608
26.8585
33.289
37.8717
39.4328
38.0354
34.9931
32.2137
31.2066
32.2968
34.4834
36.0203
35.3894
32.1202
27.0114
21.6584
17.5852
15.483
14.9642
14.9238
14.251
12.4644
9.92907
7.5855
6.39767
6.85339
8.77187
11.467
14.1194
16.1323
17.3086
17.8113
17.9819
18.128
18.3678
18.5764
18.4487
17.6671
16.1303
14.1503
12.496
12.2047
14.1888
18.8017
25.5818
33.3233
40.4475
45.4812
47.4076
45.7766
40.6503
32.559
22.5671
12.3398
3.961
-0.660111
-0.639342
3.26502
8.79787
13.2578
14.9513
14.1035
12.4464
11.5436
10.945
7.75585
-1.38882
-16.4988
-30.7371
-30.0234
2.66799
79.2615
198.329
341.188
475.427
565.461
585.95
532.036
421.459
287.414
165.407
80.2204
38.7524
31.2857
39.523
46.6511
44.3699
34.0977
22.9643
17.7818
20.657
28.3394
34.9354
35.793
30.082
20.7816
12.5109
8.81715
10.5637
16.1207
22.8688
28.8429
33.492
37.2912
40.7364
43.5792
44.8713
43.7496
40.3536
36.1754
33.524
34.3701
39.2493
46.8818
54.7543
60.3479
62.3401
61.139
58.5062
56.533
56.5642
58.6412
61.6896
64.2433
65.2209
64.3122
61.8299
58.237
53.7445
48.275
41.7952
34.731
28.1022
23.1957
20.9232
21.2544
23.1125
24.8472
25.0462
23.2217
19.9803
16.5984
14.2821
13.5685
14.2018
15.4993
16.9043
18.333
20.0922
22.4607
25.26
27.7443
28.9088
28.0273
25.0714
20.7434
16.1088
12.0662
8.97663
6.65114
4.65195
2.67639
0.769121
-0.747821
-1.54125
-1.52638
-0.946587
-0.238162
0.211801
0.25215
-0.006183
-0.314569
-0.461135
-0.383008
-0.164487
0.0502355
0.155989
0.135002
0.0404915
-0.0544774
-0.100652
-0.0860666
-0.0251749
0.0565685
0.130096
0.165483
0.140615
0.0575836
-0.0463322
-0.110794
-0.0906906
0.00101242
0.0811879
0.037015
-0.196094
-0.569468
-0.923516
-1.07393
-0.938607
-0.62208
-0.388357
-0.519514
-1.13605
-2.08887
-2.99155
-3.36801
-2.80958
-1.03152
2.19488
7.14089
14.097
23.1387
33.7566
44.5806
53.4624
58.0278
56.5495
48.7632
36.2119
21.8862
9.25705
1.07957
-1.54457
0.524297
4.89642
8.66235
9.61748
7.25332
3.09246
0.0978761
1.19649
7.399
16.4159
22.7854
20.0871
4.81672
-19.6795
-41.4792
-42.3897
-4.44317
81.5244
208.994
354.378
482.883
560.101
564.768
497.153
379.132
245.699
131.606
59.0021
31.3189
35.4863
50.6186
58.4912
50.846
30.6926
8.03875
-6.88756
-9.12926
-0.686581
11.7602
21.1883
23.9851
21.2304
17.2382
16.5818
21.4223
30.5113
40.1448
46.2961
46.6735
41.685
33.9965
27.1044
23.7476
24.9136
29.7831
36.4553
42.9665
48.0725
51.4887
53.6089
54.9822
55.8971
56.2914
55.9761
54.9654
53.6557
52.7136
52.7292
53.8493
55.6245
57.1724
57.5714
56.2628
53.2467
48.9916
44.1518
39.2841
34.7237
30.6459
27.1988
24.5526
22.7881
21.6967
20.6746
18.8762
15.6453
11.0384
6.12525
2.79655
3.02852
7.85966
16.5625
26.5023
33.9191
35.4441
29.7527
18.5908
6.59508
-0.172657
3.53166
20.0245
47.6237
81.0935
113.421
138.166
151.423
152.658
144.271
130.247
114.606
100.281
88.701
80.0135
73.6084
68.6419
64.3859
60.3939
56.5381
52.9514
49.8807
47.4748
45.6048
43.8458
41.6896
38.9029
35.8053
33.2348
32.1369
32.9685
35.2764
37.756
38.8219
37.3962
33.4591
28.0352
22.6275
18.4566
15.9666
14.8648
14.5955
14.8614
15.8034
17.7218
20.5783
23.6984
25.961
26.4081
24.8835
22.2445
19.9561
19.2866
20.607
23.2478
26.0114
28.0103
29.2822
30.7681
33.6483
38.4387
44.4124
49.7223
52.1916
50.3618
44.2445
35.3923
26.2489
19.0862
15.0185
13.5443
12.8477
10.7732
6.07328
-0.67586
-7.06283
-9.97917
-7.56041
-0.976801
5.1412
4.46132
-7.34577
-28.4832
-48.8063
-51.4722
-18.8189
59.4118
179.115
319.839
449.637
535.494
555.244
505.818
404.134
280.222
165.754
83.1064
39.5117
28.1319
34.4747
44.3286
49.3054
47.9852
43.2882
38.5363
34.8178
30.9094
25.1533
17.534
10.3339
6.92993
9.62664
18.0406
29.1139
38.7253
43.8533
43.97
40.9209
37.5324
35.9295
36.5942
38.6012
40.6706
42.2141
43.6776
46.0418
49.9346
55.0218
60.0934
63.7548
65.2321
64.7657
63.3795
62.235
62.0149
62.7018
63.8063
64.7977
65.3988
65.5652
65.2333
64.0964
61.6265
57.3553
51.2163
43.6898
35.6299
27.8789
20.933
14.8872
9.69255
5.52604
2.97705
2.85924
5.70673
11.2439
18.1794
24.5176
28.2897
28.3582
24.8877
19.2388
13.3459
8.90056
6.74677
6.75324
8.15765
10.1277
12.1997
14.3698
16.8479
19.6922
22.6027
25.0272
26.5155
27.0787
27.2895
28.0127
29.8906
32.8781
36.1206
38.2824
38.1732
35.3397
30.2972
24.2794
18.6529
14.3333
11.5204
9.86667
8.92396
8.54969
8.99469
10.6188
13.4406
16.8549
19.7618
21.0829
20.3765
18.1621
15.7152
14.4071
14.9503
16.9961
19.3368
20.6174
20.1513
18.3641
16.5968
16.3692
18.5126
22.6518
27.3139
30.5888
30.9811
28.0203
22.3729
15.4825
8.99448
4.26521
2.12702
2.88641
6.41306
12.1931
19.333
26.6066
32.6422
36.2527
36.786
34.3203
29.5948
23.7077
17.7346
12.435
8.13936
4.79414
2.09869
-0.307091
-2.59845
-4.49032
-5.07686
-3.04049
2.58713
11.2661
20.016
23.6084
16.5113
-3.67822
-32.7272
-58.3145
-62.3859
-27.4763
55.0394
178.436
319.511
444.465
520.18
526.429
463.656
352.702
226.461
117.227
45.3608
14.0818
11.9938
21.2121
26.5815
21.5574
8.61816
-4.8688
-12.2667
-11.5128
-5.4865
0.585191
2.62071
-0.114492
-5.15978
-8.88501
-8.9056
-5.41866
-0.845388
1.77509
0.566454
-4.22576
-10.4865
-15.3858
-16.7288
-13.8403
-7.67268
-0.237334
6.29235
10.415
11.7966
11.3167
10.7025
11.9018
16.4159
24.8239
36.6628
50.6848
65.3472
79.2924
91.6015
101.755
109.419
114.269
116.035
114.754
111.064
106.261
101.969
99.4992
99.1744
100.016
100.024
97.007
89.6115
78.0583
64.1906
50.7731
40.351
34.2165
31.9849
31.9705
32.1383
31.1077
28.6786
25.6394
23.0339
21.3725
20.2815
18.8032
16.1432
12.389
8.73454
7.04614
8.99074
15.1923
24.8442
35.9361
45.9317
52.5535
54.3708
51.0656
43.424
33.1529
22.5596
14.0666
9.56815
9.77999
13.8741
19.6817
24.5184
26.3402
24.6761
20.8196
17.1127
15.6663
17.2139
20.763
24.2701
25.9567
25.4724
24.1735
24.2959
27.4892
33.606
40.533
45.2468
45.5257
41.3109
34.8811
29.6888
28.511
31.9904
38.4189
44.8682
48.9583
50.1752
49.9405
50.42
52.8486
56.4532
58.6912
56.704
49.129
37.1686
24.2376
14.3377
10.0482
11.2466
15.2581
18.3352
17.6473
12.7096
5.52199
-0.598838
-2.8233
-0.280621
5.54782
11.6658
15.1472
14.633
10.9943
6.86883
5.34809
8.48835
16.36
27.0431
37.5001
44.8531
47.4562
45.3196
39.8018
32.8378
26.1395
20.7331
16.9539
14.7597
14.0829
14.9868
17.5551
21.6338
26.6314
31.5431
35.2246
36.7925
35.9509
33.0788
29.0363
24.7874
21.0291
18.0095
15.6109
13.6309
12.0815
11.3097
11.8465
14.054
17.7801
22.2517
26.3214
28.9698
29.7994
29.2244
28.2175
27.7306
28.1163
28.9006
29.0668
27.7068
24.6587
20.7328
17.3609
15.8475
16.66
19.1889
22.1466
24.3815
25.6237
26.6959
29.0298
33.7466
40.835
48.9223
55.8004
59.4321
58.8877
54.7095
48.5354
42.2335
37.0414
33.15
29.8703
26.1934
21.3936
15.4062
8.91292
3.21234
-0.0619391
0.572895
5.69762
14.1248
22.4242
25.5405
18.9149
1.69255
-20.4064
-34.4855
-23.5307
27.1137
122.119
250.957
388.268
500.776
558.598
546.384
469.322
351.152
224.942
120.739
55.5162
29.556
30.0858
39.5807
44.2666
38.9219
26.5082
13.9758
7.24426
8.13314
14.3414
21.6468
26.4709
27.2721
24.4113
19.2393
13.4283
8.95993
8.29862
13.8958
26.6675
44.1171
59.5372
63.5249
47.8132
9.84971
-44.3365
-100.95
-143.139
-157.708
-140.708
-99.1446
-47.9136
-3.42621
23.0291
29.1324
21.0591
9.34166
3.40476
7.4788
19.607
33.7507
43.5124
45.4346
40.3436
32.3802
26.524
26.0164
30.9337
38.4399
44.3976
45.4344
40.4714
31.0866
20.6732
12.8862
10.1219
12.6757
18.8616
25.9309
31.3074
33.5757
32.8341
30.3479
27.7529
26.2309
26.0456
26.6205
27.0693
26.8705
26.3113
26.4414
28.5275
33.2658
40.1719
47.517
52.9276
54.418
51.3601
44.8821
37.443
31.757
29.5896
31.03
34.5936
38.0594
39.5674
38.393
35.052
30.794
26.8799
24.0941
22.7115
22.7958
24.4865
27.9826
33.2088
39.4408
45.2672
49.0748
49.8863
48.0813
45.5092
44.7959
48.1035
55.9502
66.731
77.2487
84.0541
84.9709
80.0719
71.6441
63.1662
57.7867
56.9916
60.0266
64.2677
66.3266
63.4066
54.3844
40.2486
23.783
8.63371
-1.9108
-6.01158
-3.84985
2.55901
10.2722
16.7004
20.7033
22.9665
25.4305
30.0194
37.3161
45.9206
52.9057
55.2026
51.2182
41.8168
30.1185
20.1896
15.296
16.5971
22.8876
31.403
39.1589
44.0965
45.5352
43.9052
40.1366
35.1728
29.8504
25.0331
21.6793
20.6002
21.9682
24.9212
27.66
28.1748
25.3186
19.6439
13.4491
9.87223
11.4035
18.5592
29.432
40.4037
47.7
49.0295
44.5056
36.4351
28.1375
22.4251
20.4851
21.6292
23.9053
25.1583
23.9907
20.2268
14.7952
9.21861
5.00464
3.16879
3.98779
6.9782
11.0671
14.9289
17.4402
18.135
17.4697
16.7209
17.4738
20.8716
26.963
34.4904
41.269
45.021
44.2939
39.0482
30.663
21.3786
13.4298
8.21462
5.79253
4.87315
3.3171
-0.959292
-8.92717
-19.6386
-30.1455
-36.4748
-35.5479
-27.3127
-15.8917
-8.63579
-12.8078
-30.947
-57.1238
-76.5046
-69.5071
-19.6592
77.9044
211.334
353.366
469.355
529.17
518.056
441.815
324.103
197.2
90.4015
20.9364
-9.24133
-10.3975
1.9334
14.1504
19.0055
16.1068
9.38945
3.57629
1.53725
3.4652
7.63483
11.8331
14.5443
15.4251
15.1153
14.7126
15.2337
17.2322
20.6155
24.661
28.2425
30.249
30.0885
28.0731
25.4657
24.0885
25.6034
30.7632
38.9901
48.5123
57.0368
62.6807
64.747
63.9918
62.2602
61.6557
63.6224
68.3494
74.7402
80.9202
85.0079
85.7894
83.0297
77.3743
69.9892
62.1689
55.068
49.5713
46.2153
45.0881
45.7371
47.2053
48.3016
48.0755
46.2897
43.6094
41.3312
40.7228
42.294
45.4025
48.4474
49.5878
47.628
42.613
35.8307
29.2407
24.6457
23.0243
24.3137
27.6586
31.8989
35.9976
39.2262
41.1301
41.4473
40.1517
37.6422
34.9181
33.5052
34.994
40.2867
48.8919
58.6862
66.4151
68.8564
64.2047
53.0403
38.3632
24.5725
15.7776
14.1772
19.2428
28.0723
36.7206
41.8481
41.915
37.433
30.3051
22.7403
16.3722
11.9831
9.80301
10.0011
12.9239
18.8817
27.6558
38.1353
48.4338
56.5276
61.1036
62.1408
60.8815
59.1933
58.6621
59.8886
62.3257
64.6815
65.6232
64.4029
61.1205
56.5651
51.7855
47.6305
44.459
42.0982
40.0088
37.5563
34.2826
30.1027
25.3829
20.884
17.5713
16.325
17.6194
21.2684
26.3416
31.3237
34.5176
34.6022
31.168
25.0157
18.0469
12.7046
11.1062
14.1767
21.151
29.7102
36.7761
39.6884
37.2887
30.4306
21.6633
14.1967
10.5899
11.7402
16.6159
22.8306
27.7643
29.6952
28.421
25.1275
21.6332
19.4375
19.0584
19.9607
21.0419
21.3583
20.6699
19.5181
18.8262
19.2808
20.8573
22.7549
23.7712
22.9071
19.8828
15.3095
10.443
6.65375
4.86291
5.18746
6.93234
8.91848
10.01
9.63077
8.05527
6.32599
5.78275
7.36473
10.9952
15.3944
18.523
18.5584
14.9816
9.18817
4.18273
3.35113
8.82532
20.2706
34.8036
48.202
56.8615
59.4915
57.6182
54.5816
53.5594
55.7261
59.6186
62.1004
60.3798
53.8816
44.8104
36.9915
33.6121
35.2081
39.1736
41.2147
37.9778
29.2736
18.4137
10.2237
7.74704
9.66374
10.3443
3.13335
-14.4628
-36.4863
-48.0212
-29.7933
33.3842
143.894
286.657
431.464
542.193
589.491
561.661
469.012
339.747
209.202
107.132
48.3931
30.5184
38.3892
53.0444
60.2266
55.0017
41.1572
26.7233
18.5519
18.7934
24.6383
30.7897
32.8423
29.6131
23.3577
18.0835
17.111
21.2367
28.3576
34.5997
36.3042
31.9105
22.8973
13.3572
8.32549
11.493
23.2649
40.1264
55.8461
64.251
62.4319
52.7544
42.342
39.8186
50.5817
72.9463
97.4332
110.111
98.8265
59.4509
-1.04608
-66.5119
-117.882
-140.942
-131.915
-98.2893
-54.7239
-16.2583
7.7619
16.302
15.0364
11.9462
12.7394
18.4176
25.8544
30.5468
29.6892
23.8349
16.4251
11.7108
12.3787
18.1864
26.2351
32.602
34.4
31.2089
25.2102
20.028
18.8925
23.0352
31.0866
39.7557
45.4476
46.0202
41.8052
35.3792
30.1994
28.8061
31.5271
36.3693
40.1602
40.3361
36.4241
30.4209
25.851
25.9868
32.1457
42.9298
54.7766
63.5164
66.1525
62.0192
52.8438
41.81
32.1812
26.165
24.4624
26.5204
31.1524
37.0956
43.2418
48.5781
52.0779
52.7825
50.1174
44.2583
36.2624
27.7902
20.4931
15.3653
12.4057
10.7703
9.31932
7.24706
4.45419
1.49037
-0.849686
-2.0109
-1.96509
-1.17038
-0.274777
0.231685
0.216604
-0.124796
-0.466776
-0.572853
-0.410462
-0.119514
0.113474
0.180407
0.101208
-0.0168861
-0.0684274
-0.0232312
0.0612267
0.0914115
0.0158899
-0.123969
-0.209271
-0.123217
0.150785
0.480578
0.635503
0.426911
-0.137576
-0.795497
-1.13958
-0.868224
-0.0369602
0.871642
1.16512
0.374405
-1.34359
-3.13003
-3.82292
-2.68665
-0.0587707
2.55544
3.16292
0.505678
-4.81264
-10.0247
-11.1048
-4.62126
10.3158
31.0513
51.9845
66.6447
70.3396
62.1296
45.1863
25.3823
8.82327
-0.494118
-1.86252
2.50453
8.99555
14.3941
17.0735
17.1734
15.9182
14.6302
14.0145
14.015
14.1614
14.0773
13.8067
13.7918
14.5719
16.4217
19.15
22.1683
24.7838
26.5636
27.5915
28.4921
30.2034
33.5858
39.0292
46.2289
54.2347
61.7642
67.65
71.2264
72.484
71.9359
70.2824
68.0647
65.4946
62.5377
59.1689
55.6029
52.3137
49.7901
48.167
46.9923
45.3509
42.3597
37.7854
32.3921
27.7132
25.2617
25.5731
27.663
29.3362
28.3113
23.6068
16.3733
9.5823
6.60258
9.37495
17.212
26.9651
34.5453
36.9898
33.9213
27.5852
21.4767
18.3951
19.0674
22.089
25.0951
26.3341
25.6326
24.2114
23.6024
24.4937
26.3164
27.8248
28.2016
27.8514
28.2672
31.0131
36.4958
43.3771
49.0744
51.0912
48.3751
41.8806
34.0159
27.3415
23.324
21.8564
21.7367
21.6938
21.2527
20.9073
21.5634
23.6953
26.8164
29.624
30.718
29.4252
26.2085
22.4133
19.5175
18.3402
18.6661
19.4713
19.5839
18.377
16.1043
13.7214
12.3257
12.5494
14.2327
16.533
18.3872
19.0737
18.5937
17.7052
17.615
19.4843
23.9549
30.8622
39.2064
47.3601
53.4451
55.7988
53.4526
46.5188
36.3438
25.2822
16.0325
10.6712
9.74821
11.924
14.492
14.7217
11.4415
5.95298
1.52813
1.43457
6.38416
12.9636
14.4586
4.38522
-18.5831
-46.8807
-64.1512
-50.3334
9.63256
117.129
255.596
393.562
494.636
530.693
492.629
393.843
264.812
141.182
50.697
4.57904
-3.37936
9.44456
24.203
28.8683
21.6176
8.6761
-1.2431
-2.48193
4.8325
15.7244
23.7874
24.8301
18.7834
9.16929
0.823107
-2.65537
-0.382274
5.94239
13.3994
19.5212
23.3743
25.6361
27.8356
31.3123
36.4759
42.6862
48.6991
53.3533
56.108
57.1903
57.3456
57.3916
57.8338
58.7208
59.7517
60.5136
60.6913
60.1595
58.978
57.3671
55.713
54.565
54.5238
55.9625
58.6584
61.558
62.9238
60.9549
54.6858
44.7197
33.3217
23.6596
18.4338
18.5338
22.4507
26.8616
28.2077
24.5279
16.6071
7.78836
2.46752
3.97621
12.8994
26.6691
40.6306
50.0398
52.0087
46.5024
36.0218
24.2814
14.6294
8.95962
7.47673
9.17678
12.5865
16.3261
19.3351
20.8957
20.6919
18.9942
16.8134
15.7431
17.3452
22.264
29.5528
36.7179
40.655
39.1315
32.0727
21.9118
12.7003
8.33297
10.7368
18.9286
29.4158
37.7368
40.3881
36.2394
26.8464
15.6294
6.38923
1.84269
2.74295
7.82185
14.4526
19.713
21.4647
19.1037
13.7451
7.75637
3.77149
3.53882
7.10483
12.7655
17.9034
20.3727
19.7376
17.6553
17.0915
20.6975
29.2043
40.7654
51.7108
58.3837
59.0747
54.9416
49.3324
45.8371
46.1529
49.0141
50.8626
47.936
38.5997
24.5512
10.1358
0.097478
-2.97049
0.0158796
5.2948
8.58122
7.64667
3.52187
-0.52982
-1.71748
-0.348604
-0.398193
-7.0866
-22.3715
-40.8716
-49.0854
-29.4266
31.9178
136.697
270.153
403.385
502.404
540.438
508.16
417.215
295.416
175.808
84.5534
32.8934
16.2052
19.6533
26.9664
27.8705
21.0016
11.7983
7.41119
11.8014
23.5449
37.0252
45.8177
46.1267
38.4625
26.9534
16.9906
12.6163
14.9382
22.1181
30.6403
37.0448
39.2925
37.2893
32.5675
27.4545
24.1564
24.0781
27.5238
33.7647
41.3776
48.7271
54.4636
57.9061
59.2015
59.199
59.0699
59.8019
61.7615
64.5117
66.9742
67.883
66.3439
62.2604
56.4329
50.2798
45.2863
42.4128
41.7104
42.3117
42.8027
41.8205
38.6202
33.367
27.0329
20.9591
16.3021
13.6322
12.8635
13.5097
15.0788
17.3475
20.3425
24.0608
28.1434
31.7775
33.9614
34.0293
32.1259
29.3046
27.1186
26.8813
28.9941
32.7359
36.6577
39.3736
40.2971
39.8985
39.3332
39.6681
41.1704
43.0872
44.0536
42.8934
39.3465
34.2977
29.3716
26.12
25.251
26.3183
28.0188
28.9087
28.1287
25.7488
22.5823
19.6269
17.4911
16.1452
15.1152
13.9517
12.6371
11.6391
11.5589
12.5998
14.2268
15.2948
14.637
11.8079
7.54231
3.62647
2.19879
4.8212
11.7897
22.0133
33.4754
43.993
51.8861
56.2907
57.1033
54.739
49.9202
43.582
36.8199
30.7462
26.2082
23.4846
22.1699
21.3919
20.3041
18.5917
16.6795
15.4822
15.8183
17.8365
20.8195
23.5206
24.8567
24.553
23.339
22.554
23.3724
26.0964
29.9321
33.3879
35.0654
34.3862
31.8427
28.652
26.0481
24.6511
24.2781
24.266
24.0518
23.6048
23.4277
24.1465
25.988
28.5166
30.8192
32.0154
31.7481
30.3213
28.4008
26.4981
24.6123
22.2994
19.1379
15.2705
11.6207
9.57675
10.2778
13.9111
19.4532
25.0439
28.8172
29.7503
28.0874
25.1306
22.5345
21.482
22.155
23.7279
24.8511
24.3637
21.9023
18.1398
14.5566
12.8362
14.1285
18.4899
24.764
31.0095
35.3501
36.8963
36.299
35.6042
37.379
43.4469
53.81
66.3093
77.2606
82.8514
80.7124
70.9767
56.3565
41.1865
29.8123
24.9517
26.6627
32.3263
37.7035
38.7332
33.4176
22.9818
11.6299
4.70645
5.82267
14.2366
24.0437
26.2111
13.2015
-15.6209
-50.5819
-72.7388
-60.0526
3.1807
117.578
264.913
411.881
520.64
562.129
526.622
427.002
293.413
161.745
61.0011
4.71697
-10.5695
-0.186925
17.2772
27.8772
26.3633
15.5473
2.3903
-6.62446
-8.55764
-4.52553
1.88515
6.97197
8.70282
7.23411
4.26663
1.87296
1.49591
3.52066
7.42039
12.2049
16.8631
20.6291
23.0783
24.1518
24.1806
23.8849
24.2581
26.2816
30.5348
36.8832
44.4498
51.9478
58.2403
62.8317
66.0001
68.4815
70.8942
73.2771
75.0558
75.48
74.2412
71.8305
69.3343
67.7397
67.1835
66.6766
64.5814
59.6336
51.9084
43.0885
35.7687
32.1178
32.6501
35.86
38.9992
39.6128
36.9723
32.565
29.3108
29.9026
35.1771
43.433
51.1041
54.4604
51.4564
42.7705
31.5096
21.7492
16.6573
17.1267
21.5456
26.7545
29.6654
28.7462
24.6824
19.9568
17.5924
19.6694
