0
0
0
0
0
0
0
0
0
0
0
0
0
0
0
0
0
0
0
0
0
0
0
0
0
0
0
0
0
0
0
0
0
0
0
0
0
0
0
0
0
0
0
0
0
0
0
0
0
0
0
0
0
0
0
0
0
0
0
0
0
0
0
0
0
0
0
0
0
0
0
0
0
0
0
0
0
0
0
0
0
0
0
0
0
0
0
0
0
0
0
0
0
0
0
0
0
0
0
0
0
0
0
0
0
0
0
0
0
0
0
0
0
0
0
0
0
0
0
0
0
0
0
0
0
0
0
0
0
0
0
0
0
0
0
0
0
0
0
0
0
0
0
0
0
0
0
0
0
0
0
0
0
0
0
0
0
0
0
0
0
0
0
0
0
0
0
0
0
0
0
0
0
0
0
0
0
0
0
0
0
0
0
0
0
0
0
0
0
0
0
0
0
0
0
0
0
0
0
0
0
0
0
0
0
0
0
0
0
0
0
0
0
0
0
0
0
0
0
0
0
0
0
0
0
0
0
0
0
0
0
0
0
0
0
0
0
0
0
0
0
0
0
0
0
0
0
0
0
0
0
0
0
0
0
0
0
0
0
0
0
0
0
0
0
0
0
0
0
0
0
0
0
0
0
0
0
0
0
0
0
0
0
0
0
0
0
0
0
0
0
0
0
0
0
0
0
0
0
0
0
0
0
0
0
0
0
0
0
0
0
0
0
0
0
0
0
0
0
0
0
0
0
0
0
0
0
0
0
0
0
0
0
0
0
0
0
0
0
0
0
0
0
0
0
0
0
0
0
0
0
0
0
0
0
0
0
0
0
0
0
0
0
0
0
0
0
0
0
0
0
0
0
0
0
0
0
0
0
0
0
0
0
0
0
0
0
0
0
0
0
0
0
0
0
0
0
0
0
0
0
0
0
0
0
0
0
0
0
0
0
0
0
0
0
0
0
0
0
0
0
0
0
0
0
0
0
0
0
0
0
0
0
0
0
0
0
0
0
0
0
0
0
0
0
0
0
0
0
0
0
0
0
0
0
0
0
0
0
0
0
0
0
0
0
0
0
0
0
0
0
0
0
0
0
0
0
0
0
0
0
0
0
0
0
0
0
0
0
0
0
0
0
0
0
0
0
0
0
0
0
0
0
0
0
0
0
0
0
0
0
0
0
0
0
0
0
0
0
0
0
0
0
0
0
0
0
0
0
0
0
0
0
0
0
0
0
0
0
0
0
0
0
0
0
0
0
0
0
0
0
0
0
0
0
0
0
0
0
0
0
0
0
0
0
0
0
0
0
0
0
0
0
0
0
0
0
0
0
0
0
0
0
0
0
0
0
0
0
0
0
0
0
0
0
0
0
0
0
0
0
0
0
0
0
0
0
0
0
0
0
0
0
0
0
0
0
0
0
0
0
0
0
0
0
0
0
0
0
0
0
0
0
0
0
0
0
0
0
0
0
0
0
0
0
0
0
0
0
0
0
0
0
0
0
0
0
0
0
0
0
0
0
0
0
0
0
0
0
0
0
0
0
0
0
0
0
0
0
0
0
0
0
0
0
0
0
0
0
0
0
0
0
0
0
0
0
0
0
0
0
0
0
0
0
0
0
0
0
0
0
0
0
0
0
0
0
0
0
0
0
0
0
0
0
0
0
0
0
0
0
0
0
0
0
0
0
0
0
0
0
0
0
0
0
0
0
0
0
0
0
0
0
0
0
0
0
0
0
0
0
0
0
0
0
0
0
0
0
0
0
0
0
0
0
0
0
0
0
0
0
0
0
0
0
0
0
0
0
0
0
0
0
0
0
0
0
0
0
0
0
0
0
0
0
0
0
0
0
0
0
0
0
0
0
0
0
0
0
0
0
0
0
0
0
0
0
0
0
0
0
0
0
0
0
0
0
0
0
0
0
0
0
0
0
0
0
0
0
0
0
0
0
0
0
0
0
0
0
0
0
0
0
0
0
0
0
0
0
0
0
0
0
0
0
0
0
0
0
0
0
0
0
0
0
0
0
0
0
0
0
0
0
0
0
0
0
0
0
0
0
0
0
0
0
0
0
0
0
0
0
0
0
0
0
0
0
0
0
0
0
0
0
0
0
0
0
0
0
0
0
0
0
0
0
0
0
0
0
0
0
0
0
0
0
0
0
0
0
0
0
0
0
0
0
0
0
0
0
0
0
0
0
0
0
0
0
0
0
0
0
0
0
0
0
0
0
0
0
0
0
0
0
0
0
0
0
0
0
0
0
0
0
0
0
0
0
0
0
0
0
0
0
0
0
0
0
0
0
0
0
0
0
0
0
0
0
0
0
0
0
0
0
0
0
0
0
0
0
0
0
0
0
0
0
0
0
0
0
0
0
0
0
0
0
0
0
0
0
0
0
0
0
0
0
0
0
0
0
0
0
0
0
0
0
0
0
0
0
0
0
0
0
0
0
0
0
0
0
0
0
0
0
0
0
0
0
0
0
0
0
0
0
0
0
0
0
0
0
0
0
0
0
0
0
0
0
0
0
0
0
0
0
0
0
0
0
0
0
0
0
0
0
0
0
0
0
0
0
0
0
0
0
0
0
0
0
0
0
0
0
0
0
0
0
0
0
0
0
0
0
0
0
0
0
0
0
0
0
0
0
0
0
0
0
0
0
0
0
0
0
0
0
0
0
0
0
0
0
0
0
0
0
0
0
0
0
0
0
0
0
0
0
0
0
0
0
0
0
0
0
0
0
0
0
0
0
0
0
0
0
0
0
0
0
0
0
0
0
0
0
0
0
0
0
0
0
0
0
0
0
0
0
0
0
0
0
0
0
0
0
0
0
0
0
0
0
0
0
0
0
0
0
0
0
0
0
0
0
0
0
0
0
0
0
0
0
0
0
0
0
0
0
0
0
0
0
0
0
0
0
0
0
0
0
0
0
0
0
0
0
0
0
0
0
0
0
0
0
0
0
0
0
0
0
0
0
0
0
0
0
0
0
0
0
0
0
0
0
0
0
0
0
0
0
0
0
0
0
0
0
0
0
0
0
0
0
0
0
0
0
0
0
0
0
0
0
0
0
0
0
0
0
0
0
0
0
0
0
0
0
0
0
0
0
0
0
0
0
0
0
0
0
0
0
0
0
0
0
0
0
0
0
0
0
0
0
0
0
0
0
0
0
0
0
0
0
0
0
0
0
0
0
0
0
0
0
0
0
0
0
0
0
0
0
0
0
0
0
0
0
0
0
0
0
0
0
0
0
0
0
0
0
0
0
0
0
0
0
0
0
0
0
0
0
0
0
0
0
0
0
0
0
0
0
0
0
0
0
0
0
0
0
0
0
0
0
0
0
0
0
0
0
0
0
0
0
0
0
0
0
0
0
0
0
0
0
0
0
0
0
0
0
0
0
0
0
0
0
0
0
0
0
0
0
0
0
0
0
0
0
0
0
0
0
0
0
0
0
0
0
0
0
0
0
0
0
0
0
0
0
0
0
0
0
0
0
0
0
0
0
0
0
0
0
0
0
0
0
0
0
0
0
0
0
0
0
0
0
0
0
0
0
0
0
0
0
0
0
0
0
0
0
0
0
0
0
0
0
0
0
0
0
0
0
0
0
0
0
0
0
0
0
0
0
0
0
0
0
0
0
0
0
0
0
0
0
0
0
0
0
0
0
0
0
0
0
0
0
0
0
0
0
0
0
0
0
0
0
0
0
0
0
0
0
0
0
0
0
0
0
0
0
0
0
0
0
0
0
0
0
0
0
0
0
0
0
0
0
0
0
0
0
0
0
0
0
0
0
0
0
0
0
0
0
0
0
0
0
0
0
0
0
0
0
0
0
0
0
0
0
0
0
0
0
0
0
0
0
0
0
0
0
0
0
0
0
0
0
0
0
0
0
0
0
0
0
0
0
0
0
0
0
0
0
0
0
0
0
0
0
0
0
0
0
0
0
0
0
0
0
0
0
0
0
0
0
0
0
0
-2e-006
-2.8e-005
-8.1e-005
-0.000136
-0.000144
-7e-005
5.6e-005
0.000125
1.6e-005
-0.00029
-0.000632
-0.000725
-0.000376
0.000283
0.00077
0.000535
-0.000556
-0.001918
-0.002462
-0.001331
0.001238
0.003571
0.003124
-0.002212
-0.012815
-0.018257
0.065078
0.162623
0.14131
-0.100827
-0.496133
-0.748771
-0.502994
0.292134
1.16022
1.28053
0.080942
-1.99775
-3.45527
-2.6604
0.674134
4.62818
5.86575
2.03227
-5.76611
-12.4325
-11.3054
1.49235
23.4807
45.8161
57.4229
51.1845
28.4164
-1.33964
-25.1679
-33.617
-25.1747
-6.34187
12.4257
22.325
20.1425
8.75136
-5.10337
-14.1887
-13.6175
-2.40533
16.3258
36.4296
50.7642
53.9969
45.0407
27.8737
9.9931
-1.10585
-1.59269
7.14326
19.8191
30.2148
34.4347
32.1834
25.8771
18.6884
12.8335
9.07876
7.24568
6.91806
7.66272
8.96953
10.2387
10.9949
11.1815
11.0493
10.7087
9.88609
8.22632
5.95153
4.49843
6.20868
12.8365
23.8936
36.0454
44.3891
45.0109
37.3126
24.5253
11.8514
3.70773
1.54673
3.5923
6.6
8.27151
8.47951
8.92934
11.4862
16.5441
22.5094
26.6399
26.7168
22.29
14.9341
7.31407
1.8256
-0.41607
0.134109
1.95366
3.48848
3.90192
3.29581
2.39456
1.82187
1.67195
1.63906
1.44799
1.28536
1.84654
3.87305
7.52058
12.0115
15.9154
17.8487
17.2396
14.6618
11.2747
8.18278
5.952
4.48012
3.59204
3.43814
4.56193
7.61406
12.8861
20.1801
29.0311
39.0971
50.2184
61.9879
73.1245
81.4057
84.4759
81.2072
72.7854
62.7152
55.3578
53.8404
58.6232
67.7044
78.2812
88.5126
98.3033
108.405
118.696
127.151
130.749
127.579
118.571
107.392
98.1212
92.3193
87.6956
79.488
64.0467
42.1984
20.3149
8.12953
14.7368
44.9912
97.8751
167.043
242.34
311.59
362.267
383.822
370.427
323.568
252.995
174.505
105.186
57.8013
37.0407
39.3341
55.6317
75.4762
90.4085
95.5498
89.7465
75.0285
55.8439
37.9
26.4282
24.0243
29.2318
37.0444
41.3869
38.4627
28.8656
17.0908
8.741
7.04502
11.0231
16.3317
18.1001
13.7818
4.55004
-5.49842
-11.4017
-9.40267
1.94437
21.5059
45.9495
70.5227
90.2316
101.439
103.296
98.2399
91.0623
86.7376
88.2913
95.8423
107.145
119.252
129.989
138.401
144.191
147.235
147.839
147.504
149.06
155.549
168.223
184.933
174.023
174.161
175.181
178.14
182.845
188.281
193.09
195.713
194.325
187.082
172.943
152.513
128.432
104.662
84.8919
70.987
62.2893
56.2581
49.9735
41.7305
31.7796
22.0104
14.7788
11.8147
13.4432
18.5915
25.4218
32.1756
37.928
42.6593
46.9197
51.1274
54.9379
57.2996
57.1228
54.1621
49.5186
45.2998
43.529
44.9174
48.375
51.5518
51.9562
48.2062
40.5677
30.7904
21.317
14.4705
11.711
13.1685
17.4596
22.2444
25.2747
25.6792
24.7756
25.74
32.064
45.3218
63.7007
82.23
94.872
97.3773
89.4176
74.7918
59.5624
49.2005
46.0556
48.6418
52.6665
53.3486
47.7658
36.0948
21.3682
8.13402
0.431065
0.085331
6.06992
14.9666
22.4419
25.0151
21.5931
13.9312
5.74526
1.06666
2.47557
10.191
22.2292
35.4356
46.8789
54.7421
58.5385
58.8545
56.9138
54.2468
52.497
53.0239
56.2809
61.3169
65.7257
66.3932
60.8416
48.6264
31.9887
15.1333
2.43519
-3.39928
-2.41214
2.76242
8.20166
10.652
8.81713
3.84657
-1.36335
-3.61685
-1.02902
5.95688
14.4361
20.2679
20.177
13.7197
4.07551
-3.12917
-2.49593
8.18168
26.5498
46.8886
63.285
72.6157
75.7503
76.2718
77.6285
80.7029
83.5348
82.9945
77.2323
67.0318
55.2313
44.686
36.5829
30.2302
24.1895
17.8668
12.327
9.64607
11.4458
17.6129
26.1224
33.6973
36.9162
33.4714
23.0966
8.34694
-4.77544
-7.48181
9.47881
52.3189
120.405
204.449
287.919
351.83
380.853
368.559
319.347
246.665
168.306
100.78
54.5613
31.8321
27.2082
30.9266
33.2505
28.5456
16.9817
3.43148
-5.84992
-7.05664
-0.74558
8.90911
16.9686
20.7619
21.0293
20.5768
21.5628
23.5063
23.7129
19.6483
11.5297
3.04992
-0.535927
4.21861
16.5257
31.4395
42.4491
45.0879
39.0665
28.0978
17.7355
12.4686
13.9819
21.331
32.0705
43.49
53.5325
60.8312
64.5909
64.71
61.9445
57.9492
54.9308
54.8982
59.0879
67.678
79.7876
93.8505
107.9
120.02
128.67
133.142
133.765
131.836
129.099
127.163
126.919
128.432
130.952
132.99
132.586
127.862
117.846
103.184
86.4706
71.5611
61.7416
57.7977
57.2951
55.6343
48.7118
35.6803
19.8973
7.18028
2.53083
7.03024
16.9212
25.7826
28.1323
22.5609
12.3037
2.97629
-0.789646
2.31336
10.1371
18.7885
25.1111
28.0451
28.4066
27.6364
26.6881
25.712
24.5541
23.2899
22.4465
22.5811
23.7009
25.2132
26.3639
26.8609
27.0718
27.7236
29.1866
31.0518
32.3675
32.2306
30.3838
27.3793
24.0645
20.9348
17.8788
14.4933
10.6239
6.66645
3.48954
1.96295
2.49193
4.76173
8.2197
12.6571
18.5839
26.8605
37.877
50.7985
63.4422
73.0318
77.5169
76.6227
71.9293
65.9194
60.4098
55.3184
48.8277
38.7907
24.5974
8.33002
-5.71008
-12.9571
-10.9179
-0.605924
13.8866
27.2365
35.2842
36.5684
32.3658
25.522
18.8117
13.85
11.0517
10.1303
10.5622
11.9733
14.0266
16.2377
18.0705
19.2063
19.7839
20.3588
21.4692
23.2915
25.4138
27.0772
27.6238
26.9118
25.5127
24.3994
24.4825
25.9062
27.8959
29.0009
27.7735
23.4228
16.3778
8.41739
2.16847
0.199947
4.07199
13.6273
26.8266
40.4967
51.5854
58.453
61.6778
63.8691
68.3828
77.4211
90.3538
103.237
110.13
105.691
88.0173
60.0086
28.5072
1.53314
-15.0813
-19.8724
-15.5061
-6.57315
3.30271
13.2627
24.7038
39.0871
55.6457
70.7686
79.6417
79.1881
70.544
59.1578
52.0941
54.3416
65.9077
81.78
94.8599
100.153
97.8951
93.5478
94.308
104.222
120.645
134.389
133.963
111.887
69.9599
20.5581
-17.1622
-24.6738
8.19145
78.5822
171.069
263.001
332.143
363.727
354.083
310.103
245.596
176.195
114.912
69.3897
41.2599
27.2357
21.3507
17.5282
11.8319
3.61616
-4.83808
-10.0943
-9.81173
-4.32501
3.33294
9.23528
11.0311
9.4312
8.09225
11.5605
22.6291
40.6827
61.9743
81.5986
95.8348
103.648
106.573
107.322
108.219
110.361
113.685
117.72
121.877
125.461
127.578
127.306
124.228
118.973
113.216
108.835
106.817
106.691
106.864
105.746
102.915
99.3933
96.7236
95.7395
95.775
95.0969
92.2
87.0941
81.5373
77.8795
77.3733
79.1874
80.9317
80.2829
76.8077
72.5736
70.8286
73.6826
80.1355
86.0147
85.9741
76.5833
58.6027
36.9853
18.6057
8.74471
8.52472
14.6864
21.7477
25.1388
23.5667
19.0673
15.2915
14.9711
18.3139
23.1024
26.1737
25.2876
20.1349
12.1476
3.61776
-3.28734
-7.00163
-6.63295
-2.15637
5.33753
13.4851
19.0172
18.8804
11.7314
-0.902005
-14.7828
-24.6304
-26.5511
-19.8946
-7.43711
-1e-006
-1.7e-005
-5.8e-005
-0.000121
-0.000186
-0.000219
-0.0002
-0.000163
-0.000195
-0.000368
-0.000668
-0.000958
-0.001066
-0.000916
-0.000649
-0.000578
-0.000991
-0.001872
-0.002771
-0.003021
-0.002221
-0.000728
0.000143
-0.001588
-0.007924
-0.015257
0.025618
0.104052
0.151986
0.08801
-0.138535
-0.473608
-0.657954
-0.46863
0.042
0.463279
0.239085
-0.80559
-2.20255
-2.95832
-2.25782
-0.225357
1.731
1.60977
-1.5956
-6.63759
-9.9757
-7.2546
4.31528
24.1353
48.1205
70.3947
86.0221
92.9672
92.5764
88.2117
83.247
79.4921
76.8764
74.2017
70.1582
64.147
56.4223
47.7487
39.0916
31.5308
25.9792
23.0452
22.7948
24.6182
27.3186
29.5806
30.3449
29.182
26.2785
22.3547
18.4905
15.7157
14.6505
15.2541
16.7923
18.217
18.8487
18.7257
18.6156
19.4351
21.4402
23.9745
25.6478
25.1544
22.0443
17.2984
12.85
10.3728
10.5221
12.5599
14.835
15.8466
15.1493
13.6325
13.0227
14.9584
20.1859
28.2163
37.7196
46.9913
54.5178
59.3835
61.4047
61.1925
59.9999
59.3605
60.3616
62.9481
65.8089
67.2628
66.3975
64.1861
63.4481
67.3811
77.3067
91.2348
104.156
110.572
107.538
96.7771
84.0949
76.3611
77.6549
86.816
97.9481
103.606
98.6713
82.8161
60.3346
37.5795
19.6517
8.42984
2.62638
-0.434532
-2.79917
-4.73494
-5.12387
-3.01513
1.27978
6.0047
9.17579
10.0678
9.8618
11.0196
15.6055
23.5615
31.9585
36.1571
32.202
19.304
1.14743
-14.6121
-18.7229
-3.52333
34.3488
92.4161
162.418
231.962
287.363
317.136
315.102
282.288
226.724
161.101
98.7733
49.8549
18.7056
3.88971
0.075322
0.997638
1.96239
0.982564
-1.54363
-4.1296
-5.33257
-4.50244
-1.87617
1.69733
5.16289
7.62109
8.59042
8.16152
6.9094
5.65679
5.09697
5.43249
6.322
7.13107
7.41084
7.13398
6.83572
7.29964
8.96558
11.5843
14.2116
15.6437
14.9946
12.2328
8.22772
4.28349
1.49993
0.257564
0.207208
0.687116
1.29021
2.09604
3.44396
5.40893
7.50126
8.90222
9.04244
8.13532
7.1209
7.10432
8.47856
10.5992
12.1466
11.9757
9.90518
6.78712
3.9708
2.44661
2.25655
2.60825
2.58243
1.73411
0.364072
-0.809198
-1.1979
-0.755201
0.027381
0.502472
0.311766
-0.382249
-1.03784
-1.09563
-0.305389
1.06477
2.50152
3.58485
4.18588
4.49088
4.76414
5.13483
-34.0201
-14.1198
1.50106
9.97794
11.1502
7.17527
1.52644
-2.25366
-1.76458
3.4113
11.5914
19.8157
25.146
25.8288
22.0857
15.8478
9.67504
5.68804
4.87276
6.87986
10.4005
13.933
16.1442
16.0193
13.0506
7.52545
0.822196
-4.65042
-6.11222
-1.52854
9.03648
23.0112
36.0039
43.6821
43.9534
38.1161
30.4823
26.2503
28.7509
37.6226
48.6117
55.7313
54.3373
43.8203
28.3161
14.9529
10.6651
18.9542
38.2914
62.9359
85.6838
100.819
106.065
102.696
94.1955
84.4322
76.4327
71.8812
71.2084
73.8501
78.2582
82.0916
82.757
78.4958
69.7626
59.7268
53.3854
55.4917
67.96
88.3729
110.605
127.496
134.095
129.801
118.295
105.405
96.1335
92.4623
93.0423
94.6266
93.9824
89.4129
81.0287
70.1207
58.3776
47.3247
38.2277
32.0172
28.963
28.3455
28.3082
26.6133
21.7819
14.1057
5.62515
-0.917267
-3.63142
-2.50885
0.610155
3.3179
4.08611
2.94253
1.11041
-0.026031
0.048484
0.826297
1.5146
1.76648
2.05729
3.32654
6.08003
9.90173
13.5269
15.5151
15.1958
13.0145
10.2689
8.28914
7.62677
7.85207
7.99242
7.27546
5.77739
4.41966
4.38731
6.29718
9.72642
13.2699
15.3182
15.017
13.0046
11.3005
12.4165
18.1256
28.5258
41.6974
54.4194
63.373
66.5533
64.0715
57.9737
51.3666
47.0025
45.949
47.1076
47.9299
45.917
40.1085
31.5988
22.9834
16.8921
14.5985
15.4963
17.9603
20.5965
23.1806
26.3968
30.4539
33.7478
32.9706
24.9631
9.64978
-7.89024
-17.804
-8.74022
27.1146
89.7993
170.04
251.418
315.392
347.246
340.741
299.947
237.566
170.424
113.72
76.2186
58.1549
52.7751
50.6125
44.7131
33.7844
21.8753
15.0414
16.9948
26.3648
37.494
43.7856
41.5953
32.2174
20.7725
13.0887
12.5111
18.4228
27.1622
34.2761
36.7172
33.8097
26.9068
18.3795
10.7272
6.20063
6.27067
11.2192
19.7534
29.1131
36.0054
38.0308
34.7538
27.8902
20.3307
14.49
11.0083
8.71171
5.84042
1.46667
-3.57579
-7.1377
-7.03248
-2.51
5.17042
13.5992
20.8232
26.7383
33.2603
42.9773
57.1874
74.5926
91.5291
103.845
109.408
109.529
108.37
110.446
117.758
128.329
137.153
138.973
131.062
114.633
93.9746
74.17
58.8394
49.0802
43.9748
41.7872
40.8881
40.1282
38.7233
36.1241
1e-006
9e-006
2.8e-005
4.2e-005
4.2e-005
3.3e-005
3.1e-005
5.5e-005
0.000108
0.000163
0.000185
0.000156
0.000102
9.2e-005
0.000182
0.000354
0.000504
0.000511
0.000332
6.4e-005
-9.4e-005
5.8e-005
0.000636
0.00171
0.003448
0.003675
-0.022326
-0.060153
-0.02704
0.059342
0.123951
0.115869
0.022269
-0.077728
-0.060215
0.12733
0.396194
0.54616
0.379315
-0.042907
-0.389157
-0.258795
0.434643
1.31888
1.74405
1.22556
-0.232642
-2.18925
-4.28546
-6.74987
-10.3071
-15.4888
-21.7896
-27.3493
-29.6623
-27.077
-19.9699
-10.8056
-2.88997
1.47747
2.1811
0.950533
-0.137292
-0.175913
0.251326
0.100097
-0.612693
-0.279136
3.33102
11.2182
21.747
30.9281
34.4925
30.477
20.6517
9.73642
2.81897
2.65686
8.38424
16.1691
21.5775
22.1313
18.4826
13.7512
11.3882
13.053
17.7295
22.4554
24.2828
22.1996
17.7544
14.0517
13.5899
16.5416
20.6391
22.6486
20.5246
14.8618
8.43079
4.30268
4.02693
6.90183
10.809
14.0589
16.5127
19.255
23.4117
28.8507
33.8564
36.2236
34.8361
30.4766
25.3107
21.4433
19.6278
18.9287
17.6909
14.9111
11.1
8.13389
8.03274
11.6546
18.065
24.9711
29.9926
31.9771
31.5322
30.6281
31.3104
34.4407
39.161
43.3979
45.1616
43.827
40.5614
37.6795
37.2825
40.0418
44.8088
49.2609
51.2248
49.7652
45.4686
39.9933
35.2436
32.6411
32.6621
34.868
38.0405
40.6493
41.38
39.7427
36.2612
32.386
29.7377
29.0505
29.7809
30.508
29.9031
27.9459
26.569
28.7086
36.4601
49.3855
64.1189
75.6962
80.2265
77.1974
70.0812
64.702
66.0637
75.8956
91.8757
109.013
122.187
128.284
126.922
119.867
109.832
99.5798
91.6054
87.8858
89.3406
95.057
102.016
105.631
101.462
87.2291
64.0916
36.7569
12.5743
0.082744
7.42906
40.719
102.139
188.11
288.103
385.389
460.304
495.707
482.542
423.291
331.735
228.606
134.946
65.6107
25.6034
10.4192
9.70646
12.5187
11.9165
6.73831
0.268413
-3.22722
-1.74886
3.13011
7.5328
8.07046
4.27949
-1.03804
-3.81215
-1.49906
5.06901
12.1406
15.4723
13.0232
6.26915
-0.678449
-3.48062
0.096364
9.17892
20.6041
30.5882
36.4355
37.3399
34.0815
28.3295
21.8285
16.037
11.8955
9.58795
8.60189
7.92921
6.49211
3.80027
0.321889
-2.68254
-3.83678
-2.40059
1.31739
6.32142
11.4489
16.0944
20.3439
24.7231
29.725
35.4406
41.467
46.9644
50.7955
51.6731
48.5947
41.3609
30.8588
19.0317
8.369
0.902285
-2.56227
-2.61953
-0.761896
1.60189
3.79753
5.94231
8.4123
11.1686
13.464
14.1981
12.6291
8.87088
4.01888
-0.364626
-2.89264
-3.02461
-1.14842
1.71021
4.44882
6.33529
7.1994
7.36607
7.41675
7.78669
8.53251
9.32785
9.62352
8.95952
7.37235
5.51322
4.36531
4.83925
7.06024
10.1432
12.3683
12.0776
8.63485
3.01458
-2.44777
-5.08113
-3.36126
2.22009
9.36842
15.2381
17.905
17.2001
14.51
11.6668
9.83493
9.16918
9.2734
9.94811
11.4502
14.1149
17.611
20.6848
21.8431
20.3327
17.0039
14.1241
14.0188
17.5151
23.2184
28.1473
29.3733
25.6707
18.2312
10.1029
4.58444
3.60552
6.79722
11.7685
15.3696
15.3942
11.7759
6.74683
3.73876
5.41842
12.0841
21.1588
28.333
29.9491
25.0465
16.0253
7.29188
2.94415
4.5413
10.4577
17.0798
21.0523
20.8072
16.9879
11.5496
6.54562
3.24807
2.10841
3.04737
5.62526
8.9951
11.9025
13.1122
12.1824
10.1638
9.42488
12.4807
20.3268
31.5809
42.8305
50.3153
51.9944
48.4747
42.4996
37.3077
35.0301
36.0732
39.5656
44.2645
49.2731
53.8982
57.3013
58.2742
55.6113
49.0048
39.6703
30.2135
23.7013
22.3098
26.3203
34.0136
42.4249
48.5662
50.6341
48.6565
44.2984
39.9996
37.8393
38.5761
41.2091
43.5409
43.4724
40.0503
34.1177
27.8603
23.5699
22.2469
23.0313
23.5784
21.4115
15.5462
7.26794
-0.287629
-3.85232
-1.64581
5.68355
15.636
25.3816
33.2694
39.2836
43.929
46.7155
45.6394
38.4757
25.5059
11.8814
7.72201
24.673
70.3118
143.279
231.55
315.593
375.039
395.905
375.441
322.375
252.956
184.849
131.396
98.5783
85.2563
86.044
94.7717
106.97
120.401
133.847
145.515
152.361
151.269
140.945
123.486
104.218
89.4012
83.2383
85.8704
93.5855
101.048
104.083
101.22
93.3692
82.2543
68.9829
53.8581
37.1619
20.3009
5.92299
-3.15624
-5.56981
-2.38116
3.26415
7.76026
8.7891
6.31693
2.15028
-1.40171
-2.93871
-2.45533
-1.04346
0.02589
0.202478
-0.234845
-0.60615
-0.477336
0.026776
0.42202
0.31565
-0.197677
-0.537318
-0.023362
1.61146
4.04221
6.55296
8.4612
9.44229
9.60308
16.1042
7.24944
0.494777
-1.91955
0.086034
4.63954
9.07083
11.1801
10.1342
6.67431
2.90001
1.57874
5.1896
14.6528
28.6638
43.7945
55.8466
61.8646
61.5434
57.622
54.2233
54.4574
58.5583
63.6532
65.5091
61.0553
50.1526
35.7544
22.2495
13.2055
9.78391
10.6705
13.3808
15.8587
17.4369
18.5599
19.9328
21.6827
23.1822
23.6405
22.6784
20.662
18.3548
16.2103
14.1751
12.0092
9.86386
8.57742
9.12123
11.8489
16.0111
20.0664
22.7181
23.8689
24.6695
26.5382
29.832
33.1687
34.1045
30.6483
22.703
12.3638
2.86479
-3.18401
-4.93826
-3.42039
-0.521617
2.19911
3.95138
4.783
4.91007
4.52787
3.89021
3.3648
3.3932
4.16609
5.38538
6.26918
6.02365
4.42464
2.03708
-0.119358
-1.12708
-0.805461
0.282225
1.18428
1.33494
1.1208
1.96496
5.93955
14.8177
29.2161
48.1722
69.5146
90.8223
110.584
128.74
146.118
163.128
178.656
190.008
194.282
190.519
181.067
171.17
166.779
171.359
183.576
197.604
205.831
202.769
188.071
166.848
147.124
135.636
134.33
139.496
144.05
141.599
130.034
112.502
95.542
85.2084
83.6769
88.0399
92.2896
90.9466
82.1748
68.5712
55.2766
46.8615
44.6239
46.0177
46.4501
42.2024
32.8061
21.4572
13.1221
11.6166
17.4017
27.1393
35.4365
37.8729
33.2702
24.067
14.7143
9.21898
9.17368
13.4185
19.3427
24.7042
28.7192
31.7674
34.0889
34.8047
32.2609
25.3928
15.1043
4.52781
-2.24539
-2.40117
3.90453
13.6885
22.9491
28.8374
31.0379
31.621
33.3177
37.7111
44.3299
50.8866
54.5716
53.4238
47.3562
38.2731
29.5588
24.8949
26.8501
35.5675
48.2356
60.0908
66.4973
65.3418
58.5538
51.4821
50.2682
58.5263
75.0939
94.2996
108.807
113.305
107.007
93.8297
79.9583
70.4728
66.8535
66.8271
66.2029
61.4477
51.4086
37.5906
23.0925
10.9709
3.01633
-0.572898
-0.781397
0.847869
2.77118
3.83587
3.73653
3.05904
2.78447
3.47158
4.48722
4.26856
2.05459
0.379666
6.23811
29.6305
79.005
155.541
249.471
341.296
408.1
432.428
409.327
348.111
268.07
190.397
130.454
93.8485
77.2666
72.6629
72.1426
71.042
68.4813
65.835
64.5547
64.7101
64.9209
63.51
60.0602
56.0547
54.1572
56.3807
61.971
66.8705
65.6977
55.108
36.4793
47.6957
53.7217
59.14
64.6132
70.9894
78.9166
88.3485
98.023
105.498
108.096
104.414
95.5139
84.6527
75.6279
70.6925
69.4348
69.4096
68.2032
65.0946
61.238
58.2613
56.3996
53.798
47.7076
36.6559
21.9925
7.59238
-2.17374
-4.79661
-0.735805
7.21649
15.6451
22.1176
25.7184
26.6209
25.6444
23.9652
23.251
25.2289
30.7819
39.0499
47.0428
50.5992
46.3131
33.3721
14.1508
-6.79437
-24.7942
-36.8563
-42.3584
-42.5391
-39.4242
-34.7611
-29.4989
-23.8145
-17.3161
-9.48138
0.008737
10.7451
21.5128
30.6068
36.6634
39.4998
40.3259
41.0454
43.0806
46.5394
50.3099
52.8997
53.6583
53.3136
53.4097
55.2163
58.9693
64.0852
69.8685
76.1959
83.4302
91.7275
100.301
107.393
111.354
111.947
110.766
110.328
112.354
116.264
119.044
116.363
104.632
82.792
52.7677
18.6811
-14.636
-42.9532
-63.39
-74.7169
-77.4345
-73.6544
-66.5758
-59.3334
-53.8213
-49.8492
-45.4482
-38.3237
-27.6095
-14.8431
-3.17956
4.4832
7.39251
7.3076
7.32051
9.8454
15.1316
21.3395
25.9832
27.7349
27.1305
25.761
24.9091
24.5754
23.802
21.5653
17.7242
13.1688
9.0433
5.91201
3.53963
1.59312
0.257437
0.293095
2.26515
5.5941
8.44511
8.8206
6.15732
2.34744
1.04665
5.45509
16.1624
30.398
43.2648
50.3563
49.9361
43.5787
34.8389
27.0111
21.4625
17.4841
13.5226
8.77648
4.06081
1.21668
1.68539
5.34115
10.3616
14.1818
15.0368
13.0929
10.3391
9.48028
12.5908
19.9607
30.0215
40.1943
48.1619
52.8975
54.878
55.3852
55.4418
54.9936
53.098
48.6935
41.7784
33.9431
27.8518
25.9076
28.7505
34.6931
40.5446
43.4973
42.8451
40.5337
40.0628
44.1929
52.7767
62.0069
65.632
57.9459
37.2865
8.27043
-18.3531
-28.4912
-9.9281
42.4492
122.961
215.332
297.206
347.542
354.07
317.655
251.676
176.193
109.981
64.0533
39.6524
30.6818
28.8199
28.1225
26.5982
25.0798
24.8094
25.7501
26.7145
26.5973
25.5333
24.808
25.7414
28.5998
32.5478
36.6077
40.7146
45.6947
52.2713
59.862
66.3214
69.2499
67.9254
64.4892
63.1889
67.9519
79.7643
95.6139
109.826
117.075
115.4
107.446
98.9872
95.9081
101.273
113.913
129.269
141.949
148.236
147.554
142.158
135.549
130.831
129.515
131.261
134.583
137.878
140.259
141.769
142.845
143.543
142.68
137.827
126.344
107.092
81.9301
55.5502
33.6126
19.6957
12.9933
8.83497
1.73048
-10.4904
-24.4411
-32.7312
-28.5022
-10.3398
15.9602
40.4375
55.1906
59.8012
61.8678
71.6185
94.209
124.646
149.343
154.377
135.113
100.883
70.6366
61.5015
77.4447
105.145
121.007
105.69
56.8749
-7.97928
-61.1925
-81.1956
-65.3011
-30.2795
-0.683764
7.33579
-4.25291
-18.656
-17.895
2.74577
29.834
39.9884
15.6174
-42.0593
-111.824
-163.419
-174.045
-140.077
-77.1572
-10.0508
40.8457
68.2409
77.8775
81.5304
88.4646
100.932
115.218
126.009
130.684
130.414
128.568
128.089
129.959
133.621
138.165
142.889
146.614
146.714
139.039
119.815
88.7978
51.4353
18.0947
0.013148
3.83995
27.5373
60.6891
89.6781
104.777
105.3
99.5207
98.9023
110.361
131.2
149.985
153.136
133.34
94.6078
50.9616
19.3206
10.9755
26.3835
56.1041
86.8669
108.45
117.891
118.651
116.4
115.186
115.976
117.87
120.226
123.69
129.284
136.815
144.389
149.654
151.899
153.081
156.493
164.382
175.973
187.954
196.879
201.628
204.097
206.895
210.003
209.095
197.164
168.888
124.839
72.6922
24.4261
-9.01694
-22.6148
-18.9808
-6.10234
6.93426
14.1025
14.3253
10.4773
7.07102
7.73113
13.6468
23.4606
34.1626
42.6689
47.2636
48.4718
48.8333
51.4413
58.1231
68.1305
78.0943
83.685
81.844
72.2694
57.4266
41.0981
26.6522
16.0594
10.2276
9.85382
15.6205
27.4013
43.0622
58.2257
67.902
69.1003
63.0848
55.1758
52.0617
57.8062
71.2385
86.7147
97.6672
100.556
96.8074
91.488
89.4279
91.8553
95.8658
96.8413
92.0655
82.8645
73.6046
68.5834
68.9465
71.8951
72.7558
68.242
58.7998
48.4785
42.5292
44.3009
53.2595
65.0481
73.1478
71.617
57.4551
32.2348
2.61738
-20.5269
-24.684
0.347546
58.215
143.125
239.88
327.562
385.702
400.852
371.037
306.217
224.6
146.302
87.0602
53.952
44.8941
51.3208
62.8442
71.6611
74.8229
73.7761
71.704
70.6741
70.1851
67.6716
60.7189
49.2807
36.237
25.8524
21.2501
22.4835
26.5754
29.4537
28.4199
23.7445
18.2768
15.5051
17.4763
23.7715
32.0428
39.5498
44.44
46.0398
44.4906
40.4123
34.7935
29.3499
26.3552
27.7764
33.972
42.9187
50.8802
54.3799
52.0998
45.8627
39.645
37.4059
41.0319
49.707
60.944
72.2313
82.2328
90.9014
98.6696
105.589
111.234
115.071
117.119
118.208
119.547
122.034
125.715
129.835
133.193
134.713
133.96
131.309
128.029
125.627
124.755
124.396
121.602
112.351
93.5763
65.5079
32.6897
3.1142
-14.7724
-15.9337
-1.32386
22.2032
44.6608
57.082
55.1348
40.611
20.1607
2.19209
-6.64216
-3.79445
8.70376
25.5742
40.6992
49.3562
49.5281
42.1608
30.4231
18.5374
10.7085
10.3914
19.8164
39.4348
67.3311
99.2851
129.372
151.406
161.124
157.765
144.394
126.688
110.569
99.8131
94.9656
93.8737
93.3682
91.1693
86.8098
81.1811
75.5259
70.5138
65.9173
61.3781
57.1379
54.0054
52.6578
52.6239
51.9241
48.1082
39.8614
28.3122
17.0555
10.4385
11.0515
18.002
27.1412
33.2715
33.0669
26.925
18.5717
12.629
11.8209
15.5886
20.9417
24.5692
24.8977
22.7316
20.0536
18.3533
17.6235
16.7658
14.9108
12.3925
10.4495
10.1373
11.2939
12.5176
12.3856
10.8113
9.36577
10.2356
14.4622
20.9007
26.8574
29.813
29.1041
26.3151
23.8763
23.109
23.2308
22.177
18.3543
12.3351
6.84092
4.95534
7.92223
14.0245
19.5076
20.9137
17.2011
10.4066
4.42197
2.5999
5.8205
12.0674
17.6437
19.3178
16.0728
9.57643
3.21204
0.123315
1.47638
5.89774
10.3421
11.9121
9.5379
4.6774
0.331787
-0.742785
2.27245
7.73952
12.6224
14.3697
12.4592
8.54272
5.19273
4.16671
5.28766
6.72428
6.36506
3.47688
-0.647419
-3.50062
-2.87774
1.6442
8.2746
14.0124
16.2915
14.2675
9.19141
3.69427
0.184809
-0.238532
1.77075
4.29064
5.26935
3.64867
-0.009658
-3.66162
-4.80267
-1.81871
4.74886
11.8866
15.2773
11.7046
1.92058
-7.80944
-6.8217
15.9349
66.3608
141.023
226.59
303.704
353.834
365.862
339.418
283.805
213.525
143.182
83.7797
41.3025
17.1318
9.01717
11.9812
19.3244
24.4501
23.2251
15.5975
5.67311
-0.683574
0.679521
9.74735
22.4197
33.2262
38.6469
38.947
37.3169
37.1623
39.4981
42.6529
44.0648
42.7521
40.5042
40.6517
45.3594
53.5546
61.1283
63.3956
58.036
46.6048
33.4991
23.2396
17.9719
16.7235
16.6049
14.7769
10.0443
1e-006
1.5e-005
5.1e-005
0.000103
0.000151
0.000168
0.000145
0.000111
0.000129
0.000254
0.000475
0.000694
0.000765
0.000618
0.000356
0.000231
0.000497
0.001166
0.001884
0.002074
0.001345
-4.2e-005
-0.000955
0.00038
0.005749
0.011899
-0.024703
-0.095392
-0.12618
-0.052286
0.14714
0.401406
0.527426
0.361742
-0.039695
-0.383439
-0.258532
0.538164
1.65765
2.3061
1.7649
0.043407
-1.73729
-1.89047
0.615841
4.89144
7.91508
5.72397
-4.39056
-21.8975
-42.6771
-60.6984
-70.8744
-71.4442
-64.4677
-54.2389
-44.6042
-37.142
-31.0278
-24.5728
-16.9369
-8.99469
-2.59127
1.06124
2.58485
4.25143
8.57458
16.5418
26.6839
35.6083
39.8154
37.6429
30.2417
21.061
14.1621
12.3088
15.8268
22.8352
30.5005
36.5062
40.0441
41.6781
42.5136
43.266
44.0705
44.7762
45.629
47.5089
51.385
57.4117
64.3268
69.7322
71.3153
68.079
61.0353
52.7675
46.1747
43.1773
43.9033
46.9327
50.1776
51.9898
51.9809
51.1339
51.2126
53.7286
58.9263
65.3629
70.7251
73.3416
73.7329
74.754
80.0684
91.4375
106.498
118.77
120.368
106.237
77.3959
41.1612
8.12922
-12.601
-17.3748
-8.98093
5.48286
18.4615
25.3265
25.5959
21.9112
17.7828
15.6955
16.2434
18.5307
21.1382
23.2164
24.873
26.9368
30.3245
35.2615
40.797
44.9377
45.3338
40.3956
30.1955
16.8005
3.92576
-4.32956
-4.84284
3.14747
17.5796
34.1662
47.8812
54.9934
54.6589
49.3933
43.9883
43.0893
48.7671
59.603
71.5467
80.2985
83.7064
82.6798
80.1283
78.6602
78.6742
77.9976
73.3967
62.8444
46.9427
28.8635
12.9936
2.93506
0.218926
4.05703
12.0446
21.2351
29.2078
34.6888
37.7543
39.5865
41.7039
44.7906
47.8406
48.3172
43.6689
33.6522
22.161
17.3013
28.9592
64.8282
126.426
207.054
292.743
365.931
410.541
416.843
384.382
322.027
245.272
171.615
115.358
83.7407
75.559
82.9185
95.0829
102.904
102.046
93.8904
83.588
76.9555
77.3227
83.8116
91.9091
95.8914
91.746
79.1205
61.3315
43.5184
29.6459
20.3937
13.3915
5.30576
-5.26591
-16.3109
-23.5075
-23.4431
-16.6133
-8.22882
-5.80642
-14.7533
-34.7743
-59.4981
-79.7977
-88.8034
-85.3657
-74.1044
-62.1028
-54.4881
-51.7069
-49.9235
-43.787
-29.754
-7.87135
18.6252
44.9607
66.9204
81.8781
89.0519
89.3783
85.2739
80.2144
77.8375
80.6176
88.809
100.222
111.361
119.386
123.518
124.786
124.714
123.676
120.252
112.335
99.1775
82.6423
66.467
53.9987
45.9388
39.7937
31.5307
18.6693
2.28331
-13.294
-23.0391
-24.2975
-18.44
-9.92871
-3.61234
-2.12027
-4.86081
-8.94779
-11.2787
-10.3444
-6.69417
-2.06269
1.82258
4.17702
5.19174
5.54509
5.69446
5.61049
4.81432
2.70967
-0.815863
-5.14865
-8.69787
-9.4874
-6.04823
1.61244
11.5936
20.6634
25.6191
24.7182
18.541
9.63707
1.32568
-3.64608
-4.03283
-0.294395
5.97957
12.9959
19.2465
23.7436
26.0095
26.0732
24.4254
21.8077
18.9823
16.5236
14.6258
13.2595
12.3758
12.0973
12.5482
13.616
14.7822
15.3134
14.7962
13.6731
13.3007
15.5286
21.632
31.4946
43.4821
54.8939
62.9241
65.5986
62.5162
54.9797
45.61
37.6145
33.6622
34.8169
40.0193
46.2266
49.7499
47.8909
40.2563
29.0069
17.8707
10.4062
8.54524
11.9142
18.3659
25.2166
30.4854
33.6513
35.4844
37.2287
39.5854
42.2169
43.8392
43.2017
40.1316
35.9911
33.1596
33.3932
36.4695
39.9903
40.919
37.8866
32.5031
28.8355
30.6741
38.7511
49.7655
58.185
59.7649
54.3407
46.0399
40.6703
41.9858
49.5609
59.5431
67.3338
70.4685
69.3492
66.0466
62.1882
57.7831
51.7673
43.4795
33.9599
25.7133
21.3402
22.1089
27.3022
34.6363
41.3259
45.3361
46.1528
44.8715
43.8266
45.7693
52.6645
64.3356
77.8534
88.1444
89.8708
79.8238
58.7353
31.3239
4.72802
-14.218
-21.55
-17.2794
-5.1097
9.19957
19.8958
23.1469
18.1219
7.1271
-5.12628
-13.2878
-13.3603
-4.34346
11.1552
27.8569
39.9921
43.878
39.4827
30.3754
21.822
18.112
20.2413
25.6518
29.6525
28.1353
20.1311
8.63058
-0.595072
-1.96412
6.87943
23.4117
41.292
53.3668
55.0942
46.5587
31.986
17.3867
7.59639
4.24419
5.81023
9.25929
12.1162
13.5038
14.0476
14.828
16.4063
18.691
21.5342
25.308
31.0241
39.4634
50.0834
60.764
68.42
70.5866
66.8216
59.0073
50.3549
43.9085
41.2697
42.1996
45.2223
48.5302
50.6557
50.6871
48.3965
44.2778
39.5462
36.1734
36.088
40.2776
47.8914
56.1458
61.0426
58.9173
48.1383
30.3166
10.7224
-2.61145
-0.813661
23.171
72.1222
142.824
225.738
306.388
368.596
398.77
390.029
344.642
273.913
194.927
125.063
76.4615
52.6525
48.4859
53.8077
58.7455
57.9608
51.9205
44.9189
41.3372
42.5475
46.3229
48.6617
46.7054
40.5454
32.7599
26.5303
23.6713
23.6819
24.5298
24.4962
23.3228
22.2194
22.6968
25.3041
28.9838
31.6351
31.5452
28.5926
24.5848
22.4515
24.7278
31.911
42.0101
51.4069
56.7034
56.764
53.4367
50.5691
51.9231
58.9895
70.4665
83.3159
94.6553
103.487
110.899
118.989
129.212
141.504
154.593
166.912
177.555
186.383
193.416
198.592
201.948
204.075
206.15
208.979
211.596
210.527
200.77
178.454
143.768
102.074
62.1848
32.6718
18.1293
17.2284
23.9113
30.674
32.0814
26.6718
16.6495
6.03257
-1.52407
-4.14671
-2.09816
2.73772
7.72896
10.5054
10.0315
7.05283
3.78669
2.88469
5.83403
12.0079
18.8158
23.0707
22.9045
18.6711
12.6213
7.35576
4.14698
2.57906
1.34936
-0.254686
-1.65368
-1.56232
0.722687
4.38049
7.49808
8.52394
7.67912
7.17948
9.85909
17.0771
27.4749
37.4537
43.1899
42.8161
37.4749
30.6098
26.1099
26.2231
30.6326
36.9525
42.0865
43.6341
41.0735
35.8505
30.599
27.8299
28.6234
31.9955
35.3082
35.6947
31.7773
24.529
16.7823
11.4734
9.92622
11.096
12.2232
10.741
6.01227
-0.168319
-4.55723
-4.3661
1.09484
9.95283
18.7975
24.5835
26.1219
24.5317
22.3752
22.0525
24.3553
28.0565
30.7602
30.4348
26.936
22.1228
18.9035
19.4561
23.9416
30.4008
35.9394
38.2469
36.7382
32.5122
27.5755
23.8707
22.5895
23.9697
27.3824
31.5896
34.9885
35.9214
33.5299
28.4888
22.9339
19.6553
20.7086
26.2052
34.0071
40.7379
43.5539
41.6841
36.8757
32.4565
31.5776
35.5241
43.0931
51.2976
57.0188
58.6592
56.8538
53.9764
52.4611
53.1817
54.7269
54.2146
49.1301
39.0347
26.2286
14.6579
7.88516
7.22752
11.1688
16.3078
19.5744
19.7398
17.7677
15.9367
16.0874
18.4515
21.6899
23.6905
22.9248
19.3207
14.1977
9.45771
6.59586
6.06736
7.28588
9.16303
10.892
12.3133
13.8311
16.0035
18.9181
21.9666
24.0607
24.2604
22.4665
19.7501
18.0625
19.3982
24.7707
33.6645
44.0375
52.8912
57.3381
55.5845
47.6601
35.6717
23.1981
14.0817
10.867
13.6702
20.0502
26.0645
28.1303
24.6625
16.6769
7.03745
-1.10304
-5.64489
-6.16027
-3.78294
-0.361895
2.29124
2.77595
0.587664
-3.57233
-7.72238
-9.04015
-5.0173
5.35147
21.2348
40.587
61.1176
80.982
98.1873
109.665
111.234
99.5661
75.5593
46.9337
27.5524
32.6048
71.5781
142.581
231.447
316.488
376.564
398.45
380.482
331.351
265.692
198.836
142.834
104.252
83.8401
77.6032
78.8919
81.1786
80.467
76.496
72.0148
70.3928
73.1788
78.9035
83.9092
84.4718
78.9666
68.6172
56.7265
46.7104
40.3862
37.4337
35.9438
33.6983
29.3159
22.9485
16.0623
10.6528
8.38465
9.7679
13.9949
19.4765
24.6397
28.7113
31.7829
34.302
36.4805
38.0453
38.6683
38.7692
39.7535
43.2773
49.7611
57.1804
61.3015
57.7921
45.116
26.2719
8.15703
-1.56326
1.63002
16.5935
37.2615
55.8816
67.1612
70.9411
71.684
75.4607
85.8452
101.261
115.496
120.702
111.566
88.5046
57.8267
28.9062
9.76935
3.54922
7.34714
14.2644
17.4129
13.6989
5.13968
-2.69736
-4.02962
3.92472
19.5144
37.6428
52.591
60.5323
60.8942
55.9934
49.2941
43.4795
39.2461
35.3514
29.7176
21.1022
10.282
0.078194
-5.8196
-4.70951
3.30828
14.9527
25.0292
28.8614
24.8064
15.3829
6.2046
3.32205
10.1971
25.726
44.7715
60.7447
68.9363
68.8722
64.0965
59.8865
60.0992
64.9777
71.6706
76.6377
78.375
78.5215
80.4216
86.3414
95.2612
103.31
106.344
103.208
97.0655
93.7811
98.2179
110.894
127.327
140.68
145.977
143.066
136.678
133.252
136.908
146.924
158.12
163.881
159.82
145.968
126.33
106.399
90.2364
78.7795
70.1591
61.7341
51.9323
41.3012
32.0596
26.5374
25.763
28.9321
33.7707
37.6574
38.7508
36.4887
31.3961
24.5104
16.8479
9.36026
3.15383
-0.53295
-0.490305
3.68526
10.989
19.0204
24.8545
26.3345
23.1472
17.0307
10.7625
6.70812
5.63709
6.58803
7.72215
7.55765
5.87805
3.72946
2.53689
3.34191
6.54695
12.084
19.7305
29.2365
39.9847
50.6468
59.3274
64.3123
65.074
62.7989
59.9073
58.8247
60.623
64.4686
68.0744
69.1205
66.5274
60.9014
54.1153
48.272
44.9009
44.52
46.92
51.5697
57.8535
64.964
71.7369
76.7099
78.4154
75.9856
69.6248
60.484
50.2262
40.2685
31.4905
24.4988
19.9511
18.7807
21.8083
1e-006
9e-006
1.9e-005
2.5e-005
2.1e-005
4e-006
-2.2e-005
-3.8e-005
-1.7e-005
4.4e-005
0.000114
0.00014
7.2e-005
-7.5e-005
-0.000212
-0.000211
-3e-006
0.000326
0.000535
0.000361
-0.000234
-0.000904
-0.000981
0.000182
0.002762
0.003311
-0.023486
-0.029593
-0.008997
0.038822
0.100712
0.139284
0.08825
-0.07832
-0.259134
-0.298835
-0.082596
0.35043
0.714733
0.661008
0.009053
-0.959155
-1.51877
-0.95498
0.80752
2.74145
3.06736
0.330347
-5.25179
-11.3438
-14.2945
-11.2382
-2.10049
9.6026
18.2649
19.2404
11.6466
-0.730086
-11.4841
-15.1932
-10.5121
-0.880315
7.75293
10.565
6.85026
0.205436
-3.91802
-1.80983
6.1463
15.7382
21.4877
19.8269
10.9779
-1.49454
-12.6528
-18.4678
-17.1285
-8.93509
4.26069
19.725
34.1851
44.3131
47.7603
44.4628
37.365
31.6373
32.095
40.3492
53.385
64.6914
67.6361
59.2447
42.235
23.8228
12.3879
13.5947
28.0749
51.5898
77.3063
98.6729
111.81
116.399
115.375
113.095
113.226
116.919
122.252
125.451
123.222
114.863
102.902
91.5541
84.022
80.3472
77.7311
72.8962
64.9257
56.2701
51.0173
51.786
57.4192
63.4703
65.3048
61.289
53.9965
48.2918
47.725
52.0242
57.344
59.208
55.7752
49.0317
43.0585
40.7469
41.4508
41.626
37.5715
28.4776
17.5851
10.1511
9.98725
16.6795
25.7302
31.2236
29.5471
21.7111
12.7028
8.34329
11.6676
21.0988
31.3362
36.4105
33.2808
23.5788
12.7419
6.9034
9.69788
20.3464
34.4057
46.2164
51.7185
50.2149
43.9822
36.4273
29.9999
25.1969
21.1532
17.0334
13.1141
10.9716
12.4909
18.5792
28.4505
39.7898
49.7991
56.3756
58.7805
57.6292
54.1838
49.6212
44.79
40.3078
36.7507
34.7929
35.0006
37.4807
41.6848
46.4317
50.272
51.8783
50.4366
45.6856
37.9539
28.2353
18.0406
9.36124
4.26729
4.24632
9.62481
19.3385
31.005
41.5343
48.1307
49.1599
44.605
35.9964
25.9957
17.3965
11.9365
9.49024
8.02185
4.61424
-2.84825
-14.2408
-26.8865
-36.5508
-39.4442
-34.2177
-22.7153
-9.14646
1.79302
6.8763
5.44067
-0.892659
-9.51782
-18.1279
-25.4863
-31.5344
-37.0112
-43.006
-50.385
-59.3425
-69.0552
-77.5274
-82.0989
-80.4328
-71.621
-57.0092
-40.2137
-26.0089
-18.5915
-20.1437
-30.095
-45.1233
-60.3196
-70.5811
-72.0478
-63.2913
-45.7694
-23.6535
-2.7925
11.2163
15.2652
10.1877
0.652889
-6.67937
-6.21073
3.99142
21.1461
39.1128
51.4508
54.3833
48.3738
37.2709
25.954
18.1223
15.1045
16.1212
19.4768
23.6073
27.3384
29.7435
30.0197
27.7398
23.1902
17.6749
13.3182
12.2223
15.7377
24.0649
36.155
49.9824
63.1014
73.2047
78.8236
80.0669
78.9175
78.7627
82.9749
93.1697
108.054
123.517
134.118
135.563
126.726
110.117
90.6925
73.5628
61.7572
55.1621
51.3698
47.5903
42.5085
36.9772
33.1537
32.8278
35.8663
40.1933
43.2677
44.0379
43.654
44.3458
47.0008
49.226
45.9168
32.6261
9.98382
-13.8017
-24.7211
-8.80847
40.6041
118.237
207.434
285.926
334.18
342.348
313.038
258.97
197.251
143.042
105.164
84.9494
78.1244
77.9246
78.4154
76.4987
72.0533
66.9681
63.4536
62.4383
63.0505
63.107
60.3489
53.8042
44.3534
34.2115
25.5835
19.5501
15.6605
12.5934
9.54821
7.11026
7.00752
10.7284
18.0509
26.6267
32.9698
34.425
30.7791
24.4765
19.0956
17.3045
19.5675
24.2045
28.8467
31.7485
32.4264
31.2917
28.872
25.6259
22.3862
20.7196
22.7264
30.0523
42.8338
59.3702
77.025
93.7984
109.287
124.208
139.231
153.883
166.602
175.722
180.715
182.725
183.662
184.848
186.129
185.959
182.557
175.15
164.52
152.718
142.081
134.22
129.542
127.191
125.421
122.241
116.205
107.017
95.8605
84.9118
76.4682
71.8178
70.7638
71.9648
73.8475
75.3788
76.1056
75.7055
73.5535
68.7777
61.0476
51.1885
41.1488
33.0421
27.7729
24.5143
21.5107
17.4994
12.7353
8.92539
7.98542
10.7101
16.3628
23.3293
30.2806
36.7995
43.2636
50.0553
57.0741
63.696
69.3461
73.7806
76.7915
77.7253
75.4163
68.8765
58.4969
46.8765
38.0504
35.2872
38.9905
45.8337
50.4619
48.6344
39.8938
28.0728
19.2103
18.0054
25.079
36.7602
47.5095
53.0933
52.857
49.5171
46.9274
47.3389
49.838
51.0625
47.5972
38.3797
25.6556
13.9587
7.72171
9.11358
17.1771
28.5503
39.4319
47.2508
51.273
51.9963
50.098
46.0412
40.5189
35.063
32.0688
33.7241
40.4073
49.818
57.8269
60.69
57.7365
52.0623
48.7532
51.6526
60.7282
71.8629
79.5364
80.5347
76.1586
71.2332
70.7339
76.1886
84.476
89.8915
87.8753
77.8776
63.4829
49.9041
40.6419
35.6412
32.2112
27.6633
21.6918
16.7458
16.246
21.9087
32.1764
42.6959
48.6664
47.4252
39.946
30.25
23.2769
22.421
28.0382
37.4193
46.5304
52.3465
54.3026
54.3429
55.4605
59.7706
67.3102
76.1836
83.9883
89.3033
92.159
93.3086
92.8856
89.5013
80.9614
65.9391
45.6874
24.3369
7.40211
-0.685311
1.51234
12.0305
27.0474
42.9316
57.4409
69.6723
79.0158
84.5246
85.3348
81.9026
76.794
74.106
77.4676
87.3915
100.195
109.424
109.103
97.026
76.2479
53.4974
35.757
26.8248
25.8559
28.4794
29.6568
26.405
18.8351
9.42833
1.22894
-3.90497
-6.05191
-6.50665
-6.92872
-8.36459
-10.781
-13.2391
-14.6184
-14.6766
-14.859
-17.8967
-26.3551
-40.2968
-55.3514
-62.8895
-52.7141
-17.7226
41.7817
116.158
188.279
238.995
253.903
228.583
170.302
95.1634
22.124
-33.6173
-65.2838
-75.3978
-72.881
-67.9757
-67.4762
-72.3728
-78.7098
-81.1161
-76.5957
-66.4983
-55.6399
-49.2699
-49.8896
-55.9978
-63.3944
-68.1775
-69.2481
-68.8948
-71.0375
-78.3467
-90.2972
-103.146
-111.962
-113.272
-107.032
-96.362
-85.7827
-78.9511
-77.0061
-78.3127
-79.5901
-77.6042
-70.6396
-58.9686
-44.5729
-30.239
-18.4336
-10.4671
-6.14397
-4.05612
-2.26072
0.840148
5.60865
11.1581
15.8236
18.0237
17.1285
13.7878
9.77837
7.55536
9.64442
17.9101
32.8884
53.2615
75.9787
97.3145
114.275
125.636
132.011
134.667
134.131
129.569
119.604
104.018
84.9629
66.5636
52.8824
45.5168
42.7499
40.7324
36.2228
28.8093
21.0125
16.2975
16.3803
19.9908
23.9138
25.3284
23.8665
21.5586
20.9913
23.1872
26.7836
29.0411
28.0775
24.2579
19.9271
17.6072
18.2625
20.6988
22.7103
22.8782
21.5078
20.5248
22.0269
26.9541
34.4672
42.3323
47.9674
49.5894
46.9837
41.631
36.3268
34.137
36.8627
44.1131
53.1823
60.1076
61.6914
57.2495
48.9794
40.6118
35.146
32.9739
31.9486
29.2173
23.5783
16.7912
12.699
14.6432
23.1111
34.9997
45.4385
50.7787
50.8779
49.1506
50.2101
56.6463
67.2297
77.4717
82.4687
80.0019
71.7276
61.8751
54.5541
51.3684
50.9712
50.6305
48.566
45.0323
41.8251
40.4633
40.8488
41.4639
40.5837
37.8163
34.5325
32.6621
33.1656
35.2793
37.1165
36.9917
34.4917
30.5195
-11.7268
-0.4467
7.20193
10.5749
11.1676
10.9895
11.2095
11.9194
12.8207
13.9083
15.7222
18.8926
23.5608
29.0835
34.5048
39.2493
43.3687
47.3293
51.1278
53.9682
54.5356
52.0356
47.014
41.5182
38.0764
38.306
42.0618
47.6359
52.71
55.569
55.8351
54.2314
51.966
50.1217
49.5564
50.8353
54.2791
59.7077
66.1353
71.65
73.8184
70.616
61.4659
47.6205
31.8248
17.5502
7.84401
4.27164
6.31744
11.5821
16.8261
19.2935
17.9554
13.9474
9.81348
7.81668
8.55949
10.8449
12.7536
13.3275
13.4796
15.4594
21.1689
30.4065
40.4682
47.4083
48.2202
42.5694
32.977
23.5041
17.6795
16.9766
20.4886
25.7783
30.2556
32.4633
32.649
32.5602
34.4588
39.6622
47.5494
55.3582
59.3238
56.6256
47.2494
34.5299
23.9588
20.6709
26.95
41.1551
58.5563
73.6412
82.6496
84.9054
82.5449
79.1236
77.9223
80.6576
87.0475
95.0876
101.986
105.2
103.383
96.9451
88.049
79.5435
73.5159
70.1183
67.2042
61.4886
50.439
34.1555
16.0166
1.55538
-4.00321
1.61554
16.3191
34.4761
49.4223
56.633
55.8938
50.9531
46.999
47.0605
49.8046
50.2821
43.4735
29.0632
13.9925
11.0094
33.2478
87.2683
168.553
261.883
346.579
403.964
423.357
404.26
354.575
286.861
214.701
150.389
103.248
78.0015
73.4505
82.4445
94.2433
99.0262
92.4356
77.3835
61.8173
53.5285
55.3263
63.4948
70.6367
70.7019
62.8027
51.3842
42.7458
40.622
43.7518
47.0025
45.0078
35.706
21.3797
6.91505
-3.22774
-7.17602
-6.05644
-2.58667
0.829169
3.02197
3.98322
4.09524
3.68993
3.00669
2.31508
2.04079
2.20573
2.19607
1.11567
-1.39408
-4.30565
-5.20731
-1.57434
7.47929
19.9725
31.5089
37.2552
34.4407
23.8874
9.7444
-2.57627
-8.84452
-7.66373
-0.689681
8.62543
16.812
21.6931
22.7993
21.0561
17.8345
14.3353
11.1388
8.30962
5.94926
4.56925
4.93516
7.47545
11.4321
14.4944
13.3612
5.0225
-11.7149
-35.3924
-62.5142
-88.9786
-111.66
-129.311
-142.471
-152.686
-161.627
-170.517
-180.162
-190.91
-202.59
-214.344
-224.687
-232.325
-236.777
-238.472
-238.118
-235.575
-228.908
-215
-191.344
-158.138
-119.291
-81.2716
-50.0368
-28.0791
-13.1066
0.380478
17.7544
41.203
68.5719
94.9165
115.596
128.616
134.916
-1.43629
-0.17881
1.87956
3.96325
5.40947
6.08973
6.61172
7.90175
10.4717
14.0136
17.4215
19.5803
20.3351
20.7773
22.6379
27.0776
33.5711
39.9439
43.6477
43.535
40.9
39.0642
41.5161
49.7993
62.3357
75.113
83.7427
85.5491
80.5737
71.1592
60.5485
51.5875
46.1111
45.0444
48.7102
57.081
69.6146
84.8871
100.679
114.391
123.667
126.912
123.56
114.169
100.322
84.3759
68.968
56.6175
49.0634
46.7048
48.491
52.1652
54.9262
54.2676
48.7609
38.6634
25.939
13.7668
5.32111
2.41227
4.45231
8.74762
11.9621
11.8733
8.64014
4.57623
2.53381
4.06782
8.48704
13.2309
15.4447
13.4824
7.70866
0.3162
-5.65183
-7.36326
-2.90393
8.07404
23.9395
41.1637
55.0629
61.4071
58.363
47.4543
32.9821
20.1875
12.9662
12.5204
17.5519
25.4429
33.6389
40.4455
44.8724
46.3097
44.5148
40.1179
34.8606
31.4197
32.7202
40.8678
56.2745
77.5212
101.664
124.884
143.371
154.495
157.646
154.609
148.889
143.95
141.536
141.017
140.413
138.171
134.536
131.198
129.46
128.411
124.651
114.027
94.526
67.9495
39.4175
14.8983
-1.54617
-9.17957
-9.86049
-6.24477
-0.291389
7.1017
15.5409
24.3794
32.5849
38.9905
42.7442
43.3996
40.9588
35.9933
29.9863
25.2239
24.0581
27.8188
35.8955
45.9078
54.9835
61.3909
65.2795
67.9082
70.1512
71.4131
69.6763
63.0929
51.6581
37.6853
24.6844
15.4699
10.9024
9.87301
10.592
11.9772
14.2176
18.1222
24.0978
31.2505
37.2918
39.4047
35.4338
25.05
10.41
-3.91822
-11.653
-6.21683
17.4423
61.1206
122.199
193.391
263.713
320.519
352.379
352.017
318.782
259.386
186.448
114.944
57.7185
21.6846
6.4843
5.87283
11.3227
15.7864
15.8675
11.888
6.28752
1.50719
-1.09844
-1.3051
0.773871
5.13265
11.6982
19.809
27.6863
32.8805
33.4873
29.3513
22.2933
15.1887
10.5065
8.98848
9.52659
10.2095
9.72883
8.13087
6.54488
6.0499
6.59241
7.09784
6.57497
5.35778
5.5061
9.71977
19.4773
33.6093
48.4926
59.8964
65.307
65.3617
63.2262
62.5462
65.4174
71.5415
79.042
86.1745
92.4792
98.7865
106.22
115.153
125.052
135.076
144.907
154.856
165.161
175.106
182.787
185.728
182.219
172.165
157.212
139.919
122.684
107.278
-1e-006
-1.8e-005
-5.8e-005
-0.000115
-0.000163
-0.000177
-0.00015
-0.000116
-0.000147
-0.000312
-0.000589
-0.000842
-0.000899
-0.000702
-0.000416
-0.000384
-0.000881
-0.001823
-0.002683
-0.002748
-0.001688
-6.6e-005
0.000583
-0.001733
-0.008625
-0.015224
0.031545
0.104516
0.135934
0.039028
-0.182545
-0.449672
-0.567781
-0.356341
0.142654
0.528553
0.272771
-0.798567
-2.15125
-2.74507
-1.76679
0.476188
2.32742
1.73541
-2.14691
-7.52873
-10.2675
-5.95943
7.21892
26.829
47.0566
61.8636
68.3467
68.0196
65.1027
63.1495
62.5481
61.0137
56.4895
50.1207
46.7343
51.8567
67.1446
87.5935
103.027
103.472
85.1763
53.4811
20.536
-0.807068
-3.44052
10.8447
33.0691
52.2369
61.0018
58.785
51.229
46.3165
49.8057
62.1103
78.1643
90.2629
92.3777
83.5571
68.4909
54.8108
48.8626
52.1379
60.7974
68.3589
69.7666
64.2744
55.3079
47.7749
44.3715
43.9708
42.6484
36.7534
25.8278
13.2792
4.57966
4.1853
13.0814
28.3842
44.9135
57.9432
65.2688
67.8123
68.4348
69.7679
72.6023
75.6758
76.9923
75.5486
72.276
69.4577
68.7634
69.3381
67.611
59.3453
42.7148
20.4125
-0.775878
-13.0108
-11.0597
5.45269
32.6205
64.6485
96.0294
122.361
139.73
144.431
134.058
109.743
77.6565
47.9663
31.1404
32.8785
51.1189
76.9437
98.7308
107.466
100.298
80.881
56.8358
36.2788
25.1016
25.8052
37.5878
57.0665
79.2926
99.0655
112.466
118.177
117.666
114.305
111.59
111.555
114.169
117.854
120.662
121.262
119.381
115.559
110.711
105.877
101.994
99.6442
98.8273
98.7652
98.2918
96.4449
93.1085
89.1065
85.5795
82.9779
80.3831
75.9729
68.0261
56.1634
41.8342
27.6593
16.1613
8.49208
4.0673
1.35186
-0.844348
-2.59431
-2.85496
-0.27462
5.63234
13.766
21.5684
25.9057
24.5191
17.3971
7.87888
2.69728
10.4608
38.7767
90.6168
161.473
239.027
306.073
345.89
348.186
312.751
249.346
173.86
102.692
47.8816
14.7328
2.30449
5.63011
18.0704
33.0021
44.8209
49.7921
46.8366
37.8232
27.0412
19.4496
18.4613
24.3381
34.044
42.8291
46.4549
43.1614
34.2222
23.0483
13.5058
8.36103
8.5023
12.8509
19.0591
24.5074
27.3
26.9081
24.3793
21.8171
21.3915
24.1008
29.1409
34.203
36.742
35.406
31.0239
26.2911
24.3007
26.6887
32.635
39.3055
43.635
44.3045
42.6432
41.948
45.4546
54.2502
66.6373
79.2635
89.2954
96.0495
101.136
107.128
115.6
126.075
136.564
145.16
151.082
154.533
155.43
152.428
143.216
126.175
102.171
75.108
50.2278
31.2066
18.1533
7.85713
-3.69134
-18.0716
-33.0074
-43.742
-46.2936
-40.5024
-30.4938
-22.2979
-20.1968
-24.2427
-30.3818
-33.3338
-29.9616
-21.032
-10.5685
-3.18334
-1.20359
-3.50424
-6.31116
-5.49424
1.15794
12.8595
26.3239
37.3739
42.878
42.0496
36.7685
30.6698
27.5134
29.3456
35.4891
42.9054
47.896
48.2457
44.4754
39.6094
37.3272
39.9622
47.2382
56.5644
64.547
68.6527
67.9638
62.8386
54.0775
42.5078
29.2008
15.8423
4.94035
-0.906651
-0.377091
5.57085
13.7724
20.2472
22.0743
18.8162
12.5482
6.65091
3.9014
5.11017
9.1735
14.1204
18.4852
22.2113
26.1784
31.1486
36.8412
41.8959
44.8662
45.433
44.9714
45.7618
49.3664
55.1935
60.3757
61.3163
55.9931
45.5253
34.0065
26.2564
25.07
29.7047
36.4712
41.1535
41.3833
37.7811
32.9024
29.2771
27.6548
26.8175
24.8977
21.1755
16.7269
13.6409
13.4121
15.7346
18.6953
20.2626
20.0495
19.8388
22.3179
28.9965
38.6318
47.6463
52.2279
50.9311
45.9056
41.9585
43.6988
52.5582
65.7333
77.5934
82.6969
78.7562
67.6914
54.3373
43.7155
38.6759
38.9579
41.9047
44.2232
43.7596
40.3262
35.4402
31.2948
29.7
31.2479
35.0594
39.2552
41.6684
40.7075
36.0773
28.828
21.06
15.0639
12.477
13.7788
18.3035
24.4033
29.8968
32.7202
31.6268
26.8341
20.2325
14.8736
13.6603
17.7349
25.5572
33.3683
36.9931
34.0628
25.5655
15.3786
8.23498
7.19361
12.0157
19.6119
26.1736
29.4626
29.7935
29.2525
29.8341
31.87
33.8836
33.8096
30.7093
25.4855
20.3679
17.4008
17.0821
18.0642
18.134
15.6616
10.5749
4.32284
-0.87384
-3.13713
-1.6501
3.23152
10.1285
17.0669
22.1305
24.1714
23.4287
21.5212
20.4021
20.8793
21.6132
19.643
12.6318
1.87546
-6.2661
-1.66654
25.3657
78.997
154.473
238.404
312.676
360.317
370.737
342.592
283.618
207.978
132.091
70.231
30.9014
15.0268
16.5972
25.6441
32.5835
31.9497
23.8583
12.5986
3.25091
-1.41806
-1.78214
-0.104989
1.92931
4.50511
8.86521
15.2886
21.6841
24.474
21.4121
14.034
7.75654
8.73051
19.4907
36.5469
51.9089
57.7928
51.6362
37.6962
24.3513
18.6468
21.9738
29.7499
35.1184
33.8049
26.7866
19.1849
16.4178
20.4723
28.9026
36.8845
40.7569
40.5272
39.7296
43.1363
53.7063
70.8523
90.6723
107.994
118.752
121.726
118.734
113.624
110.469
111.98
118.699
129.078
140.159
148.533
151.298
146.985
136.325
122.217
108.918
100.249
97.4746
98.3467
97.9799
91.4209
76.715
56.3287
35.9837
21.3994
15.1251
15.3167
17.3681
16.8879
12.3027
5.17821
-1.28683
-4.61956
-4.41071
-1.95291
1.06161
3.67705
5.97802
8.66252
12.3704
17.3237
23.1778
28.9702
33.347
35.0864
33.8127
30.5368
27.381
26.5242
28.7636
32.8227
35.938
35.7164
31.7728
26.2092
22.3284
22.6349
27.3862
34.66
41.8057
46.8714
49.2088
48.921
46.0957
40.6459
33.1871
25.9447
22.2944
25.1589
34.8242
47.7271
57.6637
58.9221
49.5455
32.5313
14.3494
1.47511
-2.73118
0.66747
7.50258
13.2038
15.1789
13.5621
10.3543
7.93536
7.87437
10.6806
16.0126
23.0986
30.9973
38.8583
46.0605
52.3714
57.9612
63.1065
67.9085
72.1319
75.3572
77.3348
78.0616
77.4895
75.1624
70.3307
62.6
52.7959
43.3916
37.5531
37.1814
41.3684
46.4111
47.5787
41.998
30.5364
17.4427
7.81942
4.56943
6.87557
10.9696
12.9882
11.642
8.92741
8.48776
12.8229
21.4379
31.052
37.6926
39.2836
37.0289
34.3754
34.7115
39.2215
46.3031
52.7426
55.9465
55.6497
54.0504
54.4128
59.0367
67.9604
79.1881
89.9656
98.3938
104.149
108.072
111.046
113.243
114.125
113.13
110.337
106.546
102.669
99.1104
95.674
92.1007
88.7822
87.0699
88.449
92.9407
98.2237
100.098
94.244
78.8185
56.0092
31.5132
12.1893
2.96554
4.86089
15.0179
28.7618
42.1158
53.3392
62.6941
70.961
78.0764
83.1095
85.3196
85.521
86.3124
90.4778
98.6343
107.793
112.161
105.967
86.9867
58.3866
27.6553
3.0673
-10.2574
-12.3527
-7.54609
-1.55543
1.73743
1.70599
0.203177
-0.513911
0.459648
2.33498
3.64217
3.45819
2.07757
0.591963
0.07791
0.98666
3.05664
5.71015
8.46606
10.7554
11.5779
9.23031
1.92271
-11.2483
-29.3474
-49.6097
-68.7812
-85.0183
-99.0472
-113.722
-131.992
-1e-006
-1e-005
-2.9e-005
-4.7e-005
-4.9e-005
-2.9e-005
3e-006
1.6e-005
-2.5e-005
-0.00012
-0.000226
-0.000258
-0.000164
1.7e-005
0.000139
4.3e-005
-0.000298
-0.000697
-0.000837
-0.000482
0.000269
0.000901
0.000651
-0.001111
-0.004528
-0.005977
0.024849
0.057795
0.041173
-0.042936
-0.159217
-0.223847
-0.144573
0.079799
0.314343
0.331535
-0.038603
-0.651133
-1.07365
-0.823267
0.160171
1.27481
1.52532
0.295078
-2.01747
-3.85931
-3.30603
0.731307
7.48511
14.4147
18.4915
17.8709
12.9913
6.30508
0.906866
-1.0394
0.784241
5.05744
9.88123
13.5743
15.0828
14.0128
10.4547
5.18999
-0.271145
-4.068
-4.84123
-2.56499
1.2828
4.56131
5.9527
6.00973
6.91871
10.9132
18.5701
28.1282
36.4362
40.7115
40.0958
36.018
31.1924
28.3295
29.118
34.1012
42.8719
54.2968
66.6376
77.9027
86.4457
91.9665
95.7675
100.273
107.705
118.835
132.277
145.247
154.949
160.008
160.958
159.714
158.488
158.911
161.778
166.958
173.491
179.684
183.231
181.839
174.412
161.85
146.975
133.374
123.388
116.786
110.88
102.212
88.8896
72.0363
55.364
43.0543
37.2855
37.0699
39.0354
39.5518
36.7712
31.2735
25.3155
21.1952
20.0347
21.4635
23.9912
25.7865
24.9503
20.0575
10.7014
-1.75242
-13.8259
-20.925
-19.6268
-9.89013
4.1701
16.0481
20.5016
16.7611
8.91528
3.35008
4.53777
12.1822
21.5844
27.0072
25.4311
18.279
10.1906
5.63769
6.14661
9.91692
13.5408
14.5541
12.9333
10.6901
10.1073
12.1868
16.1204
19.92
21.5822
20.0061
15.5532
10.0277
6.29285
7.40409
15.4231
30.2199
49.0353
67.3681
80.8249
87.07
86.7654
82.8506
78.7191
76.3406
75.659
75.4167
74.49
72.8872
71.462
70.8713
70.7828
70.0663
67.8383
64.5158
61.9038
61.9035
64.9038
68.8836
70.3548
66.5598
57.5677
46.8963
39.7414
39.9253
47.4314
57.8766
64.8554
63.5287
53.3736
38.4584
24.9354
17.4791
16.8924
20.2632
23.2736
23.1204
20.0372
16.5209
15.1399
16.4503
18.7372
19.4413
17.1529
12.7369
8.83835
8.0252
11.1237
16.6909
21.891
24.0738
22.1407
16.9588
10.6637
5.58174
3.44189
4.90344
9.5185
15.9968
22.3329
26.3927
26.6592
23.003
16.9856
11.322
8.68114
10.2634
15.1595
20.727
24.2363
24.4209
22.1295
19.6953
19.333
21.627
25.223
27.8758
28.3224
27.5078
28.2277
33.2679
43.2369
55.5055
65.1265
67.3799
60.529
47.0514
32.6172
23.093
21.3507
25.7084
31.031
31.7491
25.1511
13.0277
0.453676
-7.40708
-8.36882
-4.32783
0.417635
2.13576
0.123213
-3.23489
-4.92935
-4.45045
-4.8472
-10.8514
-24.8247
-43.0547
-55.6385
-50.114
-17.3351
43.5017
123.553
207.157
277.197
320.181
329.171
304.215
251.354
181.078
106.631
41.6563
-2.96976
-22.4545
-19.877
-4.90343
10.3692
16.7437
11.5993
-0.96726
-13.4345
-19.4931
-17.3158
-9.74836
-1.83016
2.42203
2.0871
-0.770771
-3.02369
-2.34956
1.88149
8.72132
16.5262
23.7108
28.8568
30.6791
28.3327
22.1048
14.005
7.51623
6.29141
12.4369
25.2594
41.2508
55.7508
65.2179
68.8465
68.6617
68.1073
69.9889
75.1986
82.711
90.6785
97.7753
103.785
109.202
114.41
119.186
123.032
125.989
129.267
134.943
144.708
158.443
173.701
186.567
193.406
192.727
185.879
176.271
167.598
162.017
159.157
156.506
150.69
139.049
120.763
97.1859
71.1027
45.8902
24.5838
9.3252
1.14574
0.020434
4.88389
13.6749
23.6313
31.9378
36.4511
36.3604
32.3157
26.0905
19.8244
15.2493
13.2285
13.7563
16.2695
19.7767
23.0747
24.8699
24.0705
20.3433
14.4244
8.06435
3.30413
1.59091
3.2272
7.35772
12.4403
16.9796
19.9618
20.9513
20.0742
18.0206
15.8233
14.5553
14.8704
16.5193
18.3298
18.8388
17.2731
14.1702
11.1729
9.9808
11.3098
14.4779
18.0272
20.8554
22.895
24.7818
26.9502
28.8882
29.2939
27.2273
23.2767
19.6682
18.9461
22.1025
27.5098
31.5822
31.0707
25.2737
16.7259
9.57131
6.7517
7.96434
9.94094
8.83749
3.07991
-5.31398
-12.0797
-13.4863
-8.80827
-0.78286
6.08272
8.22277
4.9504
-1.65994
-8.55963
-13.506
-15.9504
-16.6366
-16.4618
-15.6721
-14.1555
-12.231
-10.8712
-11.2737
-13.8736
-17.6081
-20.3598
-20.4029
-17.8973
-15.3052
-16.0419
-22.4771
-34.1096
-47.535
-58.1465
-62.721
-61.0711
-56.0578
-51.9533
-52.0767
-57.0758
-64.5881
-70.4124
-70.4475
-62.4287
-47.1387
-28.3343
-11.5374
-2.02662
-2.57995
-11.9948
-25.2796
-35.6161
-37.3419
-28.5854
-12.1891
5.73611
18.8001
23.4077
20.0129
12.2645
4.51987
-0.20344
-1.14559
0.790915
4.3826
9.1538
15.3096
22.9933
31.733
40.3954
47.7497
53.2259
57.326
61.2543
66.2275
72.9283
81.1462
89.8009
97.1825
101.447
101.336
96.8589
89.5827
82.2121
77.5078
76.9481
79.9967
84.385
87.3692
87.0873
83.2519
76.8851
69.3152
61.4805
53.8757
47.1136
42.395
41.3365
45.1778
53.7987
65.3706
77.0339
86.0988
90.9872
91.3325
87.5507
80.2347
70.0986
58.2724
46.6049
37.1085
30.9914
27.5849
24.3514
18.228
7.91645
-4.37948
-13.1145
-11.6454
4.20499
33.2725
68.4624
99.1477
115.283
111.58
89.838
58.5351
30.1812
17.4985
29.7004
70.2738
136.023
217.518
300.714
369.503
409.183
410.33
371.824
302.028
216.949
135.554
73.7363
39.4288
30.7248
38.1192
49.5213
55.493
52.4992
42.6987
31.121
22.2092
17.8128
17.2328
18.6005
20.4503
22.1771
23.4221
23.3428
20.4781
13.719
3.38458
-8.23572
-17.547
-21.0988
-17.2031
-6.74414
7.19561
20.4902
29.4735
32.2267
29.2529
23.3424
18.5011
18.0947
23.0777
31.2218
38.2512
40.3964
37.0245
31.3566
28.7067
33.0319
44.0365
56.9623
65.4399
65.7956
59.6973
53.3261
53.4019
62.9113
79.2884
96.1264
107.382
110.919
109.286
107.443
109.229
115.203
122.781
128.385
129.772
126.959
121.669
115.729
109.902
103.697
95.8954
85.5315
72.5606
58.0194
43.7211
31.5642
22.6136
16.4781
11.403
5.23426
-2.92531
-11.7218
-17.9477
-18.2987
-11.6166
0.162855
12.8497
22.371
26.9412
27.5283
26.4433
25.0682
22.6521
17.0908
7.2573
-4.91494
-14.5063
-16.1414
-7.50058
8.69174
25.5051
35.3832
34.3094
24.1009
11.2652
3.13842
3.68111
11.3825
20.4984
24.6737
20.6832
10.2163
-1.22794
-7.55982
-5.29846
4.7648
18.4501
30.402
36.5374
35.57
29.0503
20.3335
13.0566
9.77184
11.3317
16.7424
23.6228
29.1672
31.1261
28.5844
22.6406
15.9682
11.7721
12.259
17.3052
24.2143
28.7372
27.1951
18.6521
5.79605
-6.10168
-11.9388
-9.66219
-1.55945
7.011
10.7979
7.8183
0.391532
-6.57337
-8.91933
-5.91417
-0.701784
2.04163
-0.583912
-7.70616
-15.1171
-17.9097
-13.5309
-3.28132
8.50181
16.9431
19.1383
15.3523
8.38281
1.79374
-1.82177
-1.69258
1.16119
4.82596
7.5149
8.71795
9.67969
12.9725
21.3501
36.1041
55.8183
76.3265
92.4268
100.204
98.9809
91.8152
83.6202
78.4322
77.2565
77.9214
76.882
71.9424
63.9182
56.1028
51.9048
52.246
54.6145
54.3963
47.9042
34.9722
19.5122
7.46992
3.36509
7.73021
16.7858
24.801
27.3747
23.7494
16.922
11.4698
10.8079
15.391
22.9231
30.0025
34.1132
34.7435
33.2599
31.6744
31.4044
32.6084
34.4207
35.6608
35.4781
33.8234
31.2987
28.9633
27.7943
28.2776
30.062
31.9591
32.6755
31.7339
30.1032
29.902
33.2103
40.6418
50.561
59.7256
65.1386
65.9965
64.146
62.8183
64.4352
68.8164
73.2363
74.2833
70.4386
63.2781
56.5446
53.4629
54.3262
55.8771
53.1117
42.5983
25.0575
5.56223
-8.80779
-12.6899
-5.18547
9.65914
24.8681
33.9971
34.2461
27.6167
19.7001
16.6646
21.9022
33.7926
45.9935
50.5023
42.309
23.2968
3.33367
-2.8055
18.4206
72.8482
154.782
247.93
330.479
382.39
391.808
358.402
292.702
212.217
135.781
78.0998
45.9256
37.06
42.4577
50.7834
53.3324
47.2669
35.8275
25.3317
21.1583
24.6908
32.9162
40.5211
42.853
38.2675
28.4939
17.5053
9.62235
7.85339
12.9628
23.0839
34.3121
41.9198
42.3666
35.1385
23.2547
12.042
6.44411
8.33961
15.5758
23.3738
27.2985
25.8427
20.9261
16.2731
14.7171
16.3483
18.8137
19.2138
16.3488
11.6751
8.41101
9.35859
14.9822
23.0753
30.1754
33.8085
34.0297
33.3289
34.9079
40.6541
49.9697
60.265
68.6237
73.5422
75.5528
76.3736
77.3375
78.0443
76.5148
70.4538
58.9587
43.4061
26.8933
12.8336
3.3482
-1.35257
-2.61082
-2.24813
-1.53108
-0.919146
-0.329832
0.377172
1.10769
1.58273
1.57752
1.22747
0.988207
1.43991
2.92262
5.15646
7.34526
8.53365
8.09463
6.17011
3.70685
2.0301
2.13177
4.19212
7.63249
11.5607
15.3855
18.9487
22.3182
25.3494
27.4835
28.0905
26.9887
24.7398
22.2996
20.3104
18.6532
16.6578
13.8013
10.4812
7.97971
7.4362
8.85381
10.7043
10.8774
8.37973
4.53467
2.64142
5.998
15.557
28.8396
40.9913
47.2632
45.539
37.2771
26.2742
16.2928
9.18129
4.57943
1.24255
-1.4861
-2.9751
-2.21125
0.772983
4.2034
5.28596
2.02262
-5.21392
-13.5946
-19.4778
-20.5418
-17.1942
-12.2624
-9.22757
-10.2901
-15.412
-22.7344
-29.902
-35.1946
-37.9135
-38.0584
-35.9265
-32.0148
-27.2592
-23.0196
-20.6357
-20.4295
-21.1939
-1e-006
-1.7e-005
-5.5e-005
-0.000104
-0.000143
-0.000154
-0.000136
-0.000132
-0.000207
-0.000392
-0.000639
-0.00083
-0.000851
-0.000705
-0.000567
-0.000698
-0.001245
-0.002046
-0.002662
-0.002614
-0.001788
-0.000742
-0.000675
-0.003042
-0.009045
-0.01399
0.03299
0.101018
0.110803
0.011292
-0.182025
-0.395013
-0.42276
-0.175832
0.19339
0.325278
-0.116063
-1.09281
-2.07394
-2.25812
-1.24242
0.430252
1.3521
0.211135
-3.14723
-7.00449
-8.25299
-3.99826
6.66421
21.954
38.1426
51.5146
60.2906
65.4319
69.7129
75.8048
84.5076
94.0802
101.159
102.623
97.4479
87.529
77.1093
70.8865
71.7465
79.2044
89.3782
96.573
95.965
85.851
68.4146
48.5782
31.5078
20.2787
14.8427
12.8132
11.4986
9.60358
7.7008
7.34341
9.23868
12.0563
12.8711
8.8398
-0.405181
-11.1112
-15.6384
-4.63395
29.2365
87.53
163.639
243.279
308.086
341.559
334.864
290.403
221.209
146.121
82.9042
42.3958
25.9301
26.9768
35.7594
44.1786
48.5126
49.1871
48.4386
47.6909
46.377
42.6152
35.0069
23.9948
12.1299
2.87973
-1.08491
0.892991
7.33544
15.381
22.1669
25.8906
26.2112
23.9546
20.3711
16.4855
12.6635
8.7978
4.8209
1.26267
-0.782024
-0.099468
3.67258
9.36225
14.5912
16.904
15.0827
10.0108
4.1375
0.09392
-0.756435
1.14003
4.19387
7.13001
10.0803
14.5079
22.1624
33.6732
47.9921
62.8945
76.3059
87.538
97.4186
107.388
118.156
128.983
137.868
142.615
142.047
136.649
128.191
118.677
109.452
100.813
92.3037
83.4439
74.2559
65.4763
58.1978
53.2135
50.5897
49.4836
48.4138
45.8581
41.056
34.5309
27.8623
23.0927
21.7702
24.2358
29.6149
36.436
43.3779
49.5202
54.1961
56.7326
56.2389
51.9631
43.9623
33.4819
22.8697
14.8575
11.4582
13.1669
18.7701
25.795
31.5824
34.3088
33.7974
31.481
29.5322
29.6567
32.0437
35.5245
38.4113
39.9011
40.7125
42.5051
46.43
51.9577
56.9746
59.1101
57.6817
54.5903
53.3236
56.6492
64.3967
73.1954
78.2521
76.2611
67.6477
56.4622
48.1497
46.4378
51.2721
58.975
64.1461
62.3176
52.0477
35.3807
16.9516
2.22929
-4.34002
-0.827411
11.6839
29.6689
48.1979
61.9399
66.0341
56.6859
32.0316
-6.62758
-53.7312
-99.4984
-132.292
-143.203
-130.873
-103.85
-78.1306
-70.5068
-90.7196
-136.58
-13.2864
5.80893
23.7342
36.3338
42.1934
43.814
45.8916
52.0995
62.5547
74.0031
82.1762
84.6055
81.7908
76.2241
70.0718
63.3994
54.6272
42.4233
27.5767
13.4201
4.30622
3.13053
9.73892
21.0596
32.9078
42.0751
47.2781
49.0442
48.6979
47.3806
45.6687
43.739
41.8676
40.7553
41.3896
44.5679
50.1097
56.4405
60.845
60.3317
53.0562
39.6092
23.2546
8.75814
0.305447
-0.458541
5.06723
13.4807
21.4963
27.4895
31.8396
35.7892
39.9248
43.5654
45.3522
44.6121
42.2853
40.6896
42.1407
47.4618
55.3306
63.2149
68.9295
71.8368
72.7277
72.615
71.5083
68.0971
60.7159
49.0117
34.8561
21.7947
13.2076
10.4685
12.1196
14.9239
15.7083
13.1798
8.3992
3.87249
1.95004
3.61564
8.28267
14.3697
20.2661
24.9532
28.1364
30.0359
31.0521
31.6542
32.1394
32.6283
33.2677
34.4231
36.7125
40.677
46.1293
51.6556
54.7928
53.0929
45.6351
33.9681
21.6916
12.7314
9.23913
10.3779
13.0153
13.9297
11.9909
8.8754
7.85334
11.5046
19.719
29.5194
36.6698
38.2699
34.5796
28.9002
25.6062
27.6572
34.7777
43.4278
48.9473
48.3483
42.0184
33.764
28.7044
30.3725
38.7169
50.179
59.79
63.9705
62.4392
57.8076
53.3229
50.1038
46.2198
38.2241
24.4654
8.22987
-1.85193
5.39991
38.7269
99.8571
181.695
269.799
346.56
396.259
408.949
382.573
323.069
242.926
158.302
85.1654
35.2159
12.7422
13.8015
28.5376
45.5615
56.4259
58.2666
53.4422
46.709
41.9715
40.3682
40.42
39.7947
37.1054
32.3919
26.5737
20.3681
13.7734
6.71124
-0.03791
-4.50328
-4.26817
1.87736
12.6356
24.268
32.2482
33.6579
28.7636
20.8019
14.0185
11.2879
12.6706
15.9505
18.4861
19.0529
18.4962
18.6883
20.9184
24.8921
29.0689
32.0784
33.7043
34.9927
37.222
40.7406
44.7226
47.933
50.0724
52.4073
57.0812
65.5836
77.5079
90.4504
101.297
107.946
110.257
109.717
108.211
106.98
106.302
105.943
105.58
104.791
102.608
97.2019
86.4684
69.3868
47.2628
23.9701
4.57094
-6.86997
-9.25569
-4.81664
2.28159
8.12554
10.7459
10.4796
8.9869
7.91396
8.03532
9.24419
11.1188
13.4484
16.2819
19.6609
23.4952
27.5397
31.5629
35.4535
39.0266
41.8932
43.5061
43.6726
42.9122
42.5166
43.9423
-70.5224
-53.7719
-45.725
-47.5759
-59.0716
-78.8585
-104.434
-132.012
-157.199
-176.407
-188.471
-195.221
-200.31
-206.947
-215.802
-224.531
-229.284
-227.433
-219.629
-209.851
-203.283
-203.391
-209.886
-218.908
-225.108
-224.238
-214.921
-198.528
-177.661
-154.345
-129.351
-102.687
-74.8114
-47.3885
-23.2537
-5.2094
5.32632
9.04685
8.3779
6.14266
4.3122
3.46352
2.96353
1.99615
0.544858
-0.467322
0.402537
4.3682
11.721
21.6764
32.6294
42.4948
49.0024
50.0694
44.471
32.7114
17.5441
3.75384
-3.33769
-0.306749
12.4317
30.2017
45.8897
53.134
49.2872
36.4112
19.9217
5.54685
-3.31211
-6.53529
-6.17704
-4.34041
-1.72307
2.50398
9.5621
19.854
32.6779
46.895
61.8927
77.7446
94.2655
109.788
120.788
123.156
114.44
95.8085
72.3179
50.9845
37.6626
34.5041
39.279
46.8688
51.9154
51.1097
44.0253
32.49
19.28
7.0343
-2.22674
-7.20216
-7.32383
-2.97007
4.36012
12.4187
19.0088
22.9282
24.4411
24.922
25.817
27.5017
29.0936
28.8777
25.4479
18.704
10.1558
2.15487
-3.07821
-4.59996
-3.00857
-0.024515
2.46773
3.32498
2.44861
0.766264
-0.329337
0.422765
3.83668
10.2668
19.7503
32.1262
46.7499
62.3936
77.1997
89.0158
96.129
98.0321
95.7119
91.1607
86.3668
82.4863
79.391
75.9883
70.9622
63.3353
52.641
38.8973
22.6564
5.56172
-9.10484
-16.6582
-12.4331
5.79244
35.5729
69.433
97.0698
109.375
102.518
79.6919
49.4358
21.4749
2.52728
-5.99499
-7.1246
-5.3144
-3.40515
-1.59631
1.53866
6.90917
13.4641
18.5865
19.8713
16.8739
11.41
6.49171
4.30839
4.92293
6.49666
6.71969
4.54441
0.938497
-1.89937
-2.07726
0.795614
5.35609
9.39896
11.2331
10.4466
7.81116
4.57349
1.75476
-0.035628
-0.349764
1.30098
5.20284
10.9488
17.0798
21.555
23.0187
21.9518
20.8963
23.2686
31.3
44.528
59.8789
73.3639
82.3896
87.1761
90.4078
95.3608
103.879
115.558
128.726
142.237
156.763
174.493
197.184
223.889
250.081
268.97
274.663
265.31
244.449
219.445
198.06
184.828
179.258
176.774
171.609
160.018
141.935
120.43
99.4585
81.6165
67.0985
54.2852
41.3055
27.489
13.7854
2.19619
-5.3452
-7.91952
-6.04818
-1.39641
3.89146
8.02609
10.028
9.88869
8.22617
5.70719
2.79972
-0.147168
-2.55846
-3.47635
-1.83851
2.69057
9.04795
14.8132
17.4533
15.8614
11.0357
5.59467
2.01519
1.11968
1.74892
1.98938
1.04176
0.021504
1.09342
5.72867
13.508
22.6169
31.793
42.092
56.641
78.274
106.558
136.62
160.883
172.913
170.733
157.413
138.66
119.301
101.214
83.9378
67.1123
52.5255
43.6924
43.3597
50.7101
60.6747
66.1731
61.9778
47.7288
28.1205
10.199
-0.451993
-2.37023
1.62135
6.63899
8.55076
6.02112
0.624407
-4.34881
-5.70593
-1.91878
6.27757
16.2871
24.8719
29.4716
29.3358
25.588
20.4133
15.8439
12.745
10.6827
8.62931
5.98646
3.1536
1.17401
0.782338
1.62416
2.52467
2.56691
2.08023
2.72726
6.38441
13.595
22.6327
30.1049
32.8468
29.8608
22.9267
15.5347
10.8779
10.3864
13.6042
19.0808
25.5743
32.5389
39.7675
46.8959
53.5449
60.1944
68.8688
82.6803
104.179
133.222
165.847
195.331
214.874
220.583
213.007
196.285
175.877
155.828
137.635
120.866
104.831
90.1761
79.0327
73.868
75.5859
82.4385
90.2225
93.7959
89.2178
75.5146
55.1969
33.2165
14.9403
4.1382
1.87266
6.73375
16.0471
27.0929
37.8585
47.1267
53.9464
57.3875
56.875
52.8956
47.3156
42.8723
41.9891
45.4514
51.8684
58.4123
62.5908
63.9386
64.4302
67.1207
74.0602
84.7172
96.0179
104.132
106.958
105.332
102.193
100.63
101.921
105.1
108.117
109.405
108.797
106.992
104.351
100.443
94.7129
87.6127
81.1182
77.8815
79.402
84.7367
90.752
93.9651
92.6402
87.5077
80.816
74.231
67.3376
57.9987
44.3161
26.97
10.3726
1.69695
8.59264
36.5348
86.7593
155.073
231.758
302.697
352.199
367.536
343.979
287.858
215.269
146.208
96.5053
71.4332
64.5761
62.6331
53.5648
33.2446
6.95105
-14.6768
-22.5008
-14.3838
3.76055
21.6998
30.6988
28.0337
17.7611
7.88646
5.75362
14.1605
29.974
45.9809
54.8577
53.0697
42.9641
31.7168
27.4899
34.7799
51.554
69.918
80.5152
77.8943
63.8639
46.4773
35.2507
35.4839
45.1858
56.6884
61.6628
56.1816
42.7386
28.2767
19.8566
20.7101
29.1515
40.4337
49.9455
55.6204
58.5146
61.7217
68.5719
81.1129
99.1631
120.078
139.328
152.008
155.099
149.443
140.101
134.407
138.243
152.563
172.489
189.68
-0
-6e-006
-2e-005
-3.7e-005
-4.8e-005
-5.1e-005
-5.1e-005
-6.5e-005
-0.000109
-0.000185
-0.000266
-0.000319
-0.000321
-0.000288
-0.000282
-0.000375
-0.000587
-0.000848
-0.001015
-0.00096
-0.000689
-0.000405
-0.000496
-0.001406
-0.00348
-0.005258
0.010167
0.042558
0.037188
-0.008465
-0.073131
-0.121752
-0.097585
-0.011986
0.070075
0.024142
-0.190886
-0.510781
-0.762277
-0.730746
-0.368994
0.081309
0.20352
-0.340531
-1.47569
-2.57385
-2.70626
-1.06755
2.50215
7.34909
12.3531
16.6335
20.2668
24.2759
29.9894
37.9752
47.2074
55.1802
58.966
56.697
48.5733
36.8335
24.7357
15.0505
9.19723
7.1736
8.16334
11.2218
15.579
20.4428
24.7226
27.1244
26.6505
23.2898
18.2313
13.4015
10.517
10.1519
11.3329
12.2613
11.3165
8.11309
3.9536
1.23808
2.13826
7.14835
14.4891
20.7361
22.7729
19.8723
14.5263
11.3972
14.6654
25.2915
39.9516
52.5244
57.1992
51.6901
38.3446
22.7182
10.4606
4.44752
3.88371
5.44047
5.83172
3.84472
0.694314
-1.14678
0.162243
4.5137
9.89773
13.606
13.8231
10.5797
5.78165
2.10945
1.50898
4.09879
8.23505
11.4758
12.0655
10.0779
7.31259
6.27276
8.67883
14.41
21.6821
27.9565
31.2539
31.2152
29.1852
27.6057
29.0236
34.9355
44.986
56.7376
66.3016
69.7023
64.6256
51.6571
34.2263
17.3155
5.46361
1.19526
4.50343
13.5411
25.631
38.0866
48.6196
55.6482
58.7669
59.2947
60.2603
65.1338
75.669
90.1253
103.262
108.96
103.884
90.1193
74.6248
65.4629
66.814
76.207
85.7805
86.9242
75.3688
53.5667
29.198
10.6961
2.90678
5.45788
14.1342
23.8972
31.3715
35.3521
36.1168
34.3921
31.2207
28.2716
27.8939
32.0521
40.926
52.3221
62.7479
69.5763
72.7617
74.6863
78.1693
84.1393
90.7744
94.9004
94.5514
90.6409
86.2257
84.0585
84.2933
84.1692
80.1711
70.9199
58.3825
46.5647
38.7349
35.2914
33.8335
31.4773
27.325
23.1918
21.7255
23.6198
26.044
24.0551
14.085
-2.28891
-16.9704
-17.6386
7.03745
61.6492
140.587
228.297
303.515
346.168
344.405
299.086
223.817
140.124
69.5927
26.1594
12.0058
18.6666
32.7104
42.6437
43.5987
37.8038
31.1972
28.6812
31.0288
34.9843
36.1266
32.0071
23.6048
14.3464
7.56902
4.52106
3.94174
3.52965
2.00509
-0.004096
-0.717322
1.05223
4.65312
8.03743
9.58127
9.83933
11.699
18.3397
30.396
44.547
54.8155
56.0673
47.5109
33.7334
22.0771
18.2813
22.9547
31.3281
36.4559
33.7341
23.6628
11.1404
2.0269
-0.53281
2.42459
7.14482
10.3133
11.5279
13.4854
19.845
32.5712
50.4687
69.7088
85.9293
96.3332
100.642
100.558
98.3681
95.6589
92.8619
89.6138
85.3707
79.7394
72.453
63.1899
51.7383
38.4852
24.8591
13.3033
6.37472
5.51402
9.94977
16.74
22.0809
23.0627
19.0585
11.9609
4.98564
0.786569
0.157405
1.96766
4.15071
5.03326
4.28721
2.74544
1.6056
1.55461
2.43789
3.79383
5.58626
8.49783
13.4695
20.558
28.3132
33.9681
34.8437
30.1247
21.8587
14.3615
12.048
16.8798
27.0133
37.4691
42.7534
39.7665
29.4995
16.4136
6.11937
2.54187
6.36377
15.2476
25.6117
34.6573
41.5068
46.9305
52.2019
57.8776
63.2097
66.3814
65.3159
58.7917
47.1074
32.2195
17.2946
5.69321
-0.195449
0.005816
4.37115
9.45155
11.9427
10.4613
6.40199
3.09395
3.83558
9.80453
19.1263
27.8635
32.3066
31.2419
26.56
22.0152
20.9991
24.4617
30.6659
36.4493
39.4251
39.3797
38.1764
38.4112
41.7386
47.8111
54.5655
59.4159
60.5988
57.9356
52.8064
47.357
43.6098
42.6881
44.579
48.2634
52.3741
55.771
58.0199
59.4539
60.8229
62.782
65.5261
68.662
71.4438
73.197
73.5454
72.4818
70.192
66.9896
63.3721
60.0366
57.5899
56.1177
54.8003
51.9411
45.6477
34.9291
20.624
5.52851
-6.51272
-12.2
-10.3059
-2.23167
8.61788
18.3565
24.3687
26.1463
25.001
22.8733
21.0574
19.6016
17.6432
14.31
9.57084
4.40644
0.31811
-1.55661
-1.07965
0.985733
3.6729
6.50478
9.74598
14.1015
20.0314
27.1193
34.202
39.8326
43.013
43.7547
42.9333
41.7196
40.8201
40.0588
38.6805
36.0456
32.2293
28.3088
25.7185
25.335
26.842
28.9481
30.2749
30.353
29.9016
29.9178
30.2449
28.7695
22.4155
9.59329
-7.10919
-19.9315
-18.0056
8.00358
60.7814
133.555
211.379
275.847
311.379
310.254
274.445
214.171
144.274
79.8231
32.3953
7.72799
5.06855
18.0747
37.1595
52.9922
59.5934
56.0437
45.824
34.2953
25.7227
21.419
19.9714
18.9677
16.9532
14.2779
12.4199
12.5439
14.3513
16.1758
16.2031
13.7943
9.86346
6.3185
4.80615
5.86073
8.88515
12.8341
16.9059
20.6549
23.7009
25.3582
24.7702
21.4482
15.8511
9.30461
3.34266
-1.06955
-3.7687
-4.89071
-4.20697
-0.837881
6.32939
17.705
32.3639
48.2951
63.2798
75.9025
85.9803
94.2542
101.789
109.561
118.396
129.02
141.561
155.091
167.351
175.56
177.847
174.534
168.257
162.384
158.751
156.289
151.617
141.458
125.076
105.114
86.1879
72.3022
64.8233
62.319
62.1343
62.3207
62.4462
62.9851
64.1514
65.3362
65.7675
65.41
65.1904
66.1656
68.193
69.3423
66.7978
58.8777
46.717
34.4105
27.0543
27.9604
36.7618
49.4347
60.3515
64.9558
61.7346
52.7157
42.166
34.6893
33.5597
39.7579
51.9336
66.9814
81.1739
91.4786
96.4553
96.7352
94.7009
93.4277
95.2893
100.954
109.135
117.025
121.292
119.276
110.04
95.0578
78.1144
64.0697
56.7388
56.8731
61.1908
63.4676
57.6196
41.3499
18.2892
-3.05545
-13.3081
-7.22696
13.1331
38.9487
58.862
64.5112
54.256
33.1234
9.28155
-10.7139
-24.874
-35.3363
-45.3547
-56.2203
-65.8298
-70.1728
-66.3321
-54.9813
-40.7269
-30.0787
-28.2922
-36.8974
-52.9978
-70.6019
-83.1312
-85.9671
-77.9077
-61.3837
-41.5375
-24.6971
-16.6886
-21.3687
-39.5302
-68.2243
-101.058
-129.72
-146.591
-147.936
-135.962
-118.365
-104.888
-102.353
-110.777
-122.978
-128.439
-119.144
-94.1051
-59.8203
-26.1517
-0.694154
14.8971
24.3991
33.0441
43.3145
53.7655
61.3248
64.8223
66.5695
70.5936
78.8682
88.754
94.0071
89.0664
73.443
53.1158
37.5126
34.0851
44.2144
63.0412
82.821
97.7143
106.588
112.343
118.874
128.054
138.694
147.793
152.895
153.765
152.534
152.451
156.227
164.748
176.665
188.709
196.746
197.428
189.812
176.21
161.659
151.785
150.007
155.594
163.949
169.022
166.693
157.074
144.115
132.925
126.197
122.289
116.095
102.313
79.0451
49.4603
20.5245
-0.466427
-9.60271
-8.06099
-0.901424
6.05288
9.35335
9.1631
8.16467
9.12115
12.6167
16.7011
18.45
16.4026
11.8915
8.46031
9.53635
15.6949
23.5103
27.0887
21.6367
7.09722
-10.0212
-18.3447
-6.01376
34.1421
100.955
184.48
268.631
335.955
372.617
372.03
336.12
274.144
199.74
126.999
66.9608
25.4643
2.90494
-4.29604
-1.5786
5.63868
13.1335
18.2567
20.0921
19.5043
18.915
21.3288
28.746
40.7131
54.1894
65.0429
70.3774
70.2939
67.6228
65.6194
65.325
64.4754
58.9753
46.2193
27.7948
9.47321
-1.63854
-1.22469
9.53517
24.479
35.9866
39.1687
34.3302
26.4819
22.2981
26.5319
39.7983
58.3505
75.9702
86.6937
87.3433
78.9955
66.4248
56.1974
53.9126
61.7823
77.7533
96.6929
112.954
122.965
126.649
126.991
128.3
134.014
145.139
159.995
175.157
186.881
192.772
192.696
188.76
184.062
180.727
178.485
174.752
166.412
152.293
134.736
118.827
109.467
107.984
110.681
110.494
101.003
80.4152
52.7337
25.5706
5.91756
-3.33524
-4.08374
-0.683148
3.38302
7.43293
12.9885
21.4973
32.2209
42.0399
47.0646
45.1269
36.8743
25.1966
13.4984
4.01827
-2.42448
-5.56332
-4.84473
0.57674
10.8381
24.2666
37.3455
46.1449
48.2981
44.3768
37.4692
31.3581
28.3856
28.4815
29.7697
30.2809
29.3567
28.1005
28.3789
31.357
36.6159
42.3486
46.4906
47.9472
47.0842
45.186
43.5841
42.8568
42.7458
42.7985
43.049
44.2786
47.5522
53.2684
60.524
67.3836
71.8335
72.9364
71.4196
69.0712
67.3251
66.2877
64.6033
60.4735
53.0802
43.514
34.2395
27.7875
25.4303
26.4534
28.6417
29.5037
27.4356
22.291
15.3311
8.74501
4.83607
5.20036
10.1131
18.1856
26.6754
32.7778
34.9269
33.6383
31.2844
30.6983
33.4355
38.9926
45.1448
49.3711
50.4389
49.0918
47.4997
47.8174
50.7888
55.0989
58.0184
57.0067
51.1673
42.0811
33.2
28.3138
29.7162
37.0416
47.4781
57.3234
63.8375
66.5146
67.0674
67.9941
70.8725
75.3539
79.3879
80.6284
77.9869
72.588
67.475
66.2423
71.3499
82.452
95.9162
105.855
106.484
94.9254
73.1874
48.0219
28.2332
20.5598
26.256
40.341
54.1631
60.3678
57.1152
49.0566
44.386
49.6593
65.6074
86.6767
104.399
112.399
109.925
101.749
94.7612
93.6021
98.3562
105.283
109.76
109.461
105.461
101.042
99.2654
101.15
105.438
109.956
113.291
115.613
118.283
122.603
128.691
135.013
138.93
137.752
129.749
115.019
95.7014
75.4333
58.1112
46.2819
40.0392
36.8813
33.1372
26.2986
16.8504
8.23875
4.72054
8.26865
16.4792
23.2911
22.42
11.9008
-2.92091
-10.0677
4.33301
-1e-006
-8e-006
-3.3e-005
-7.2e-005
-0.000113
-0.000136
-0.000132
-0.000119
-0.000147
-0.000264
-0.00047
-0.000697
-0.000838
-0.000828
-0.000713
-0.000676
-0.000927
-0.001533
-0.002297
-0.0028
-0.002664
-0.001917
-0.001255
-0.001987
-0.005621
-0.01097
0.006769
0.059701
0.092909
0.055345
-0.07466
-0.264361
-0.385491
-0.289794
-0.001257
0.262008
0.180972
-0.41497
-1.34044
-2.05923
-1.95584
-0.894795
0.453663
0.851489
-0.717016
-4.04553
-7.23027
-7.21658
-1.32882
10.9676
27.2809
43.0043
53.5442
57.0249
55.7615
55.3708
61.7907
77.7227
100.551
123.189
137.538
138.868
128.588
113.741
103.459
104.214
116.496
134.758
150.436
156.395
150.391
135.775
119.373
107.883
104.68
108.572
114.727
117.047
110.744
94.2246
69.5032
41.4389
16.198
-0.765774
-6.54555
-1.64691
10.2637
23.8987
34.4641
39.4888
39.4866
36.8991
34.2223
32.6329
31.7556
30.6767
29.2708
28.7314
30.7066
35.7437
42.5059
48.2783
50.8314
50.3045
49.4875
52.0255
59.605
70.1573
78.457
79.0148
69.4155
51.8884
32.0751
15.5884
4.81267
-2.27693
-10.3247
-23.307
-41.7006
-62.0665
-79.0591
-88.6332
-90.4108
-87.776
-85.7684
-87.9234
-94.1999
-100.953
-102.98
-96.4884
-81.2044
-60.4001
-38.9237
-20.7946
-7.5364
1.77599
9.0354
15.4638
20.9833
24.9781
27.4768
29.4781
32.2283
35.9202
38.9477
38.5677
32.767
22.1375
10.1921
1.75306
0.393537
6.31322
16.1221
24.7343
28.1324
25.4463
19.2398
13.8886
13.1642
18.4037
28.0358
38.4433
45.595
46.5316
40.514
29.0696
15.6381
4.43955
-0.854748
1.63605
11.2496
24.916
38.2977
47.5511
50.8088
48.9244
44.7346
41.4495
40.9626
42.9323
45.2487
45.6127
43.3768
40.2072
39.1548
42.5507
50.1262
58.7435
64.126
63.644
58.3982
52.9932
53.0882
61.748
76.9097
91.5715
96.8931
86.6043
60.5093
25.1698
-8.59282
-30.3493
-34.4395
-22.0147
-0.098683
21.6965
35.3143
37.1504
28.837
15.9006
5.13419
1.89685
8.22867
22.4349
40.2373
56.7299
68.4926
74.8707
77.687
79.9549
83.8942
89.5159
94.631
96.3747
93.1887
86.1378
78.3509
72.9021
70.5454
69.0565
64.6764
54.8568
40.6691
26.7997
18.7608
19.0193
24.5633
27.8985
21.3553
2.47871
-22.5816
-39.9995
-33.4731
8.3198
85.854
187.107
291.127
375.045
421.814
425.411
391.71
334.993
272.296
217.882
179.732
158.668
149.925
145.943
139.282
124.824
100.812
68.8866
33.051
-1.66611
-30.6216
-50.4213
-59.3782
-57.478
-46.2762
-28.5032
-7.68469
12.5662
29.4522
41.67
49.5097
54.3467
57.8
60.9248
64.0954
67.3553
70.6907
73.8936
76.3937
77.1239
74.8753
69.1561
60.8645
52.0641
44.9949
40.7754
38.7305
36.7492
32.5108
24.7037
13.8495
2.24096
-6.7473
-9.82238
-4.85447
8.22401
26.9578
46.6335
61.5455
67.0244
61.3338
46.4046
27.1305
9.42888
-1.97502
-4.95981
-0.253258
9.50107
20.9281
31.0266
37.7952
40.6968
40.5245
38.9297
37.599
37.354
37.5484
36.4179
32.2948
24.8931
16.0046
8.88695
6.52724
9.81146
16.8639
23.8564
26.9085
24.1098
16.7246
8.67956
4.57024
7.40052
16.9308
29.6533
40.6146
46.1465
46.045
43.8894
45.0285
53.4144
68.8944
86.886
100.651
104.919
98.7798
86.0908
73.1098
64.9389
62.8327
64.0553
64.035
59.2289
49.1217
36.1498
24.0002
15.4758
11.354
10.7388
12.287
15.4281
20.3981
27.5462
36.2519
44.4072
49.1665
48.4713
42.3907
33.3871
25.0495
20.0848
18.9534
19.9014
20.2174
18.276
14.8351
12.6674
14.7639
22.1713
32.9153
42.815
47.6593
45.7518
38.8985
31.4545
27.928
30.5117
38.1859
47.6802
55.5723
60.1314
61.6543
61.5246
60.6403
58.678
54.6437
48.1005
40.132
33.015
28.9749
29.0068
32.641
38.6197
46.0413
54.637
64.1569
73.399
79.9573
81.4102
77.1154
69.3178
62.2966
59.9043
63.099
69.229
73.6686
72.7713
66.0606
56.2349
47.1629
41.4997
39.6513
40.4691
42.6686
45.7884
49.9115
54.4766
57.9477
58.7617
56.9845
55.2836
58.0115
68.3653
85.2901
102.608
111.371
104.378
80.5734
46.3743
13.0075
-8.78889
-13.658
-3.45467
14.6904
32.8111
46.0841
54.0513
58.8824
61.9138
61.3751
52.8988
32.5987
0.70191
-36.5661
-68.6985
-85.2322
-80.6049
-56.9536
-23.0961
9.71463
32.9803
44.4859
48.3221
51.5663
59.625
72.8537
86.2619
92.3768
85.5352
65.4141
37.7429
11.7992
-3.9856
-5.91356
3.49933
17.2799
27.6448
29.9211
24.3416
15.1561
7.70392
5.3257
7.84273
12.2891
15.2875
15.4971
14.4402
15.3496
20.5698
29.2278
36.8367
37.5201
27.7519
9.59254
-8.59128
-14.7008
2.20564
46.7817
114.547
192.724
264.315
313.608
330.795
314.222
269.695
207.921
141.25
80.8547
34.8904
7.59597
-0.894387
5.82826
21.497
38.8546
51.561
55.8784
51.4675
40.9392
28.3472
17.4228
10.2828
7.08236
6.54138
6.98569
7.183
6.71093
5.70399
4.55718
3.53288
2.70201
2.11867
1.88874
2.06187
2.57014
3.11604
3.46743
3.73204
4.6295
7.24082
12.2934
19.4524
27.0328
32.7419
34.9827
33.8794
31.4554
30.6968
33.9099
41.2613
50.772
59.5872
65.9241
70.2838
75.1239
83.1882
95.4805
110.302
123.975
132.887
135.76
134.482
133.059
135.197
142.102
151.753
160.042
163.102
159.297
149.729
137.105
124.005
111.604
99.6327
87.3262
74.4925
61.713
49.7574
38.9793
29.1779
20.2345
12.9045
8.74487
8.89335
12.7503
17.4712
19.2372
15.5779
7.3457
-1.39338
-5.66049
-2.50266
7.14323
19.1721
28.7358
32.8818
31.6557
27.2416
22.2751
18.3561
15.9679
14.9426
14.8617
14.6913
12.2085
4.34433
-11.3574
-34.6734
-61.6472
-85.6463
-100.128
-101.658
-91.4067
-74.2435
-56.1249
-41.4579
-31.8861
-26.532
-23.3179
-20.277
-16.1666
-10.4518
-3.15858
5.05089
12.8698
18.7788
21.5441
20.8942
17.8822
14.4831
12.7884
14.2005
18.8217
25.3951
31.8256
35.8968
36.2371
33.0145
28.0826
24.2757
24.2146
28.9906
37.4569
46.8179
53.851
56.477
54.6413
50.0873
45.2232
41.896
40.6919
41.1444
42.4371
44.0216
45.7867
47.9263
50.5161
53.3261
55.8981
57.7878
58.6359
58.1859
56.2791
53.0175
48.9235
44.9423
42.0525
40.892
41.2023
41.5749
39.898
34.4011
24.8111
12.9606
2.39322
-3.07969
-1.35961
6.59634
16.9618
24.8212
26.6727
22.336
15.0727
9.79079
10.1913
16.5921
25.817
33.1182
34.8782
30.5602
22.8263
15.7734
12.4147
13.1299
15.8479
17.7249
17.0652
14.3271
11.4607
10.4464
11.7944
14.4593
16.7956
18.0032
18.89
21.4651
27.4445
36.9104
47.8386
56.9608
61.1726
58.8111
50.2432
37.693
24.586
14.8524
12.393
20.5308
41.0904
73.4561
113.905
156.047
192.124
215.225
221.558
211.812
190.981
166.772
146.884
136.119
134.4
136.768
135.632
124.58
101.678
70.8438
40.1246
17.7438
8.03268
9.65677
17.011
23.8296
26.6979
26.2264
25.5516
27.4046
31.7039
35.6446
35.633
29.8825
19.8006
9.40508
3.00738
2.8117
7.73745
13.9361
16.6436
12.6355
2.16928
-10.1286
-16.1106
-6.32178
26.7293
85.3672
164.51
251.76
330.029
382.127
395.897
368.101
305.564
223.071
138.612
67.7602
19.3619
-5.88744
-13.6868
-12.2229
-8.11211
-4.42162
-1.00806
3.3708
9.04231
14.9221
19.3718
21.706
22.724
23.8
25.3184
25.9177
23.3913
16.5809
7.03982
-1.15607
-3.557
2.01631
13.91
27.583
38.1529
42.9306
42.4523
39.3991
36.3375
34.0521
31.3127
26.2295
18.0934
8.13406
-0.991891
-6.66498
-7.64283
-4.31265
2.20272
11.3368
23.3676
38.8749
57.4292
76.7759
93.4783
104.802
110.585
113.782
118.866
128.961
143.521
158.163
167.109
166.739
158.127
146.616
138.896
139.204
146.966
157.469
164.714
164.655
156.809
143.468
127.462
110.23
91.526
70.5766
47.8016
25.595
7.53651
-3.41178
-6.47129
-3.37955
2.57741
8.28091
11.9827
13.4845
13.4647
12.6163
11.0378
8.50723
5.17244
1.77682
-0.625921
-1.39906
-0.986682
-0.772818
-2.01674
-4.63743
-6.83993
-5.66691
1.33747
14.5584
31.8324
49.3317
63.2726
71.7124
75.1882
76.1133
77.3633
80.7653
86.4087
92.6592
96.8033
95.9691
88.1398
73.0068
52.4473
30.4551
12.123
1.76964
1.18158
8.54707
19.0304
26.8028
27.67
20.9661
9.75971
-0.693958
-5.58744
-2.75118
6.64378
19.0207
30.4147
38.3374
42.5007
44.1562
44.8409
45.3218
45.5296
45.2932
44.9403
45.1606
46.2468
47.4008
46.778
42.868
36.1408
29.5604
27.265
32.0506
43.0531
55.5296
63.1994
61.7684
51.4611
37.0056
25.0063
20.2322
23.1184
29.7705
34.6663
33.9305
27.426
18.5799
12.2051
11.6523
17.0663
25.5602
32.9151
35.7175
32.9532
26.018
17.5488
10.0091
4.7858
2.34043
2.82465
6.51968
13.419
22.4596
31.3012
36.899
37.1533
32.3979
25.6291
21.0654
21.9041
28.4241
37.8971
46.1949
50.0143
48.3962
42.8889
36.3857
31.4473
29.2956
29.6345
31.1145
32.0649
31.1409
27.8258
22.7193
17.3646
13.5151
12.2341
13.2574
15.1578
16.2422
15.6404
13.7922
12.0969
11.8661
13.4577
16.1633
18.7549
20.2265
20.1966
18.7993
16.2743
12.8451
9.0185
5.96613
5.2845
8.2074
14.43
21.7535
26.8741
27.0916
21.9757
13.7868
6.39317
2.92577
13.7166
14.6455
14.8826
14.0463
13.3047
14.4736
18.5308
24.5444
29.5721
29.5443
21.3148
4.92485
-14.9117
-28.9451
-25.8206
3.59368
61.5208
140.429
223.87
291.248
324.783
315.849
267.944
195.172
116.912
51.2104
9.4427
-5.91686
-0.145632
17.0926
35.8991
49.0943
53.6217
50.282
42.1169
32.6387
24.3319
18.1349
13.8339
10.8552
8.87241
7.96587
8.38664
10.1018
12.7768
16.0627
19.8676
24.4848
30.2224
36.7717
43.0608
47.5848
49.3568
48.6495
47.0118
46.3709
47.8103
50.9301
54.2897
56.5177
57.6918
59.4606
63.81
71.2763
79.993
86.3699
87.2796
82.2441
74.3481
68.8521
70.3177
80.0087
95.1462
110.645
122.099
128.123
130.617
132.823
136.787
141.791
144.93
143.141
135.41
123.573
110.983
100.323
91.8901
83.5
72.1751
56.5271
38.0112
20.4203
7.77335
2.08365
2.28339
5.041
6.90258
6.35453
4.44361
3.62803
5.85507
11.0222
16.8724
20.4866
20.1176
16.2615
11.2777
7.94011
7.90245
10.9749
15.6963
20.442
24.4701
28.1193
32.6134
39.4073
49.5874
63.4522
80.2511
97.9437
113.303
122.694
123.468
115.286
100.788
84.6971
71.8521
65.056
64.1529
66.6746
69.5274
70.6393
69.5187
66.7644
63.081
58.7296
53.737
48.3453
43.2708
39.4207
37.2179
36.228
35.4259
34.0548
32.1042
30.1646
28.6449
27.0461
24.161
19.1007
12.5994
7.36428
6.7277
12.607
23.8307
36.1985
44.4697
45.097
38.0877
26.7982
16.0604
9.73365
9.27279
13.755
21.1687
29.6912
38.1879
46.0664
52.8369
58.0785
61.5759
63.4862
64.1373
63.4155
60.5468
54.4866
44.7623
32.2336
19.0165
7.57517
-0.662826
-6.08139
-10.6516
-16.8252
-26.2091
-38.6652
-52.3752
-64.6392
-72.7589
-74.8333
-70.2081
-59.6193
-44.9418
-28.5894
-12.8468
0.945912
12.6123
22.7538
32.0089
40.5695
48.0391
53.9397
58.2871
61.8478
65.9415
71.7601
79.767
89.4894
99.729
108.96
115.885
119.699
120.359
118.576
115.675
113.151
112.01
112.339
113.256
113.491
112.169
109.314
105.934
103.48
103.238
106.034
112.132
121.185
132.052
142.618
149.795
150.176
141.232
122.423
95.378
63.4027
30.1663
-1.36399
-29.1648
-51.7947
-67.9004
-76.3287
-76.6929
-70.0736
-59.217
-47.5314
-37.7374
-30.7893
-25.7997
-20.9729
-14.9427
-7.74403
-0.693475
4.53551
7.03464
7.26924
6.84217
7.74052
11.4142
18.1919
27.364
37.6232
47.4976
55.7198
61.6141
65.0642
66.4816
66.5979
66.2026
65.8925
65.9048
65.9978
65.6945
64.6675
62.9998
61.3302
60.4512
60.6936
61.5954
62.0944
61.1043
58.2737
54.4691
51.5284
51.2723
54.6877
61.1199
68.16
72.1537
69.3673
57.542
37.4425
14.0792
-3.51625
-4.38093
20.8778
75.9552
156.193
248.94
336.668
402.382
434.545
429.911
393.532
336.263
271.195
210.388
162.658
132.376
119.312
119.212
125.299
130.29
128.778
119.14
103.827
88.1751
77.8842
76.2181
82.6985
93.51
103.403
108.208
106.647
100.495
93.3072
88.3998
87.2813
89.3265
92.4614
94.365
93.3711
88.772
80.6215
69.404
56.0832
42.1477
29.525
20.0864
14.9983
14.231
16.4667
19.6148
21.5238
20.7322
17.0181
11.3711
5.7389
2.69498
4.60559
12.8997
27.5644
47.1585
69.4175
92.1146
113.724
133.659
151.805
167.933
181.728
193.101
202.561
211.237
220.058
228.721
235.257
236.863
231.759
220.649
207.14
196.055
190.66
190.681
192.429
191.155
184.275
173.164
162.395
156.805
158.031
162.973
165.201
158.533
140.721
114.894
87.9054
66.5141
53.8063
48.0758
44.6493
39.3083
31.075
22.5952
17.8474
19.1338
25.1672
31.4603
32.9185
26.8686
14.7189
1.21781
-8.05332
-9.66048
-4.22605
3.6177
7.11929
0.585717
-17.9155
-45.2105
-73.4238
-92.6122
-94.5732
-76.2212
-41.1757
1.60692
41.6818
71.6286
89.7821
99.936
108.539
120.674
137.345
155.41
169.92
177.145
176.682
171.501
166.356
165.413
170.455
180.463
192.719
204.603
215.028
224.605
234.196
242.701
245.96
237.997
214.681
177.44
134.427
97.7168
77.2888
75.523
85.7729
96.2801
97.3819
87.3235
72.8859
64.2112
67.5987
80.7151
93.7971
95.8692
81.8141
55.9421
29.5592
14.5506
17.2145
35.9169
63.3852
91.5618
115.603
134.834
150.934
165.26
177.418
185.868
189.88
190.756
191.28
193.973
199.32
205.324
208.578
206.21
197.383
183.355
166.323
148.055
129.175
109.452
88.7602
67.9735
49.0962
34.35
25.2054
21.5582
21.6669
22.8124
22.3564
18.8149
12.4925
5.28724
-0.186098
-1.93996
0.263574
4.79436
9.24425
12.0212
13.7592
17.1586
25.2725
39.4628
58.274
77.9659
94.4029
105.287
111.141
114.64
118.74
125.024
133.178
141.679
149.018
154.37
157.572
158.655
157.681
155.195
152.595
152.029
155.404
163.11
173.23
182.057
186.005
183.579
176.239
167.67
161.578
159.625
160.468
160.642
156.66
146.842
131.965
114.448
96.5793
79.2174
61.8081
43.5653
25.1942
9.64945
1.23144
3.17745
15.0016
31.3683
43.6787
44.1995
30.8005
9.69733
-6.16546
-2.50839
29.2612
86.6317
155.452
215.085
246.647
240.701
200.735
140.837
79.2244
30.9233
2.89076
-6.61368
-4.93873
-0.336763
1.76944
0.348497
-2.28741
-2.88117
0.563347
7.76218
16.3667
23.1369
25.5862
23.0769
17.0802
10.6459
7.19369
9.11866
16.6683
27.8307
39.2682
47.9274
52.4408
53.6856
54.0202
55.7505
59.8415
65.5702
71.3391
76.0539
79.9642
84.3777
90.5344
98.5545
107.273
115.084
121.143
125.96
131.027
137.713
146.473
156.616
166.804
176.06
184.123
191.426
198.727
206.749
216.114
227.358
240.58
255
268.756
279.349
284.573
283.502
276.595
264.953
249.247
229.281
204.476
175.119
143.201
111.907
83.9748
60.0733
38.353
15.8702
-8.95608
-34.3675
-55.4385
-66.4534
-64.1334
-49.7314
-28.8415
-8.80483
4.66719
9.73686
8.3756
4.5609
1.78
1.47025
3.06023
5.10081
6.79819
8.70197
12.2632
18.6463
27.7135
37.6054
45.5998
49.4892
48.7639
45.2193
42.2484
43.3131
50.0666
61.3469
73.5966
82.715
86.3144
85.1488
82.7522
83.4133
89.525
100.03
110.921
117.715
118.064
113.096
106.443
101.596
99.7522
99.4324
98.2556
95.4562
92.7683
93.1324
97.8273
104.481
107.745
102.56
88.0201
68.8677
53.2274
47.7712
53.4099
64.4721
72.1996
70.5444
60.0298
47.5897
42.0327
47.7721
61.1714
71.7837
67.8713
43.1446
0.923209
-46.8766
-84.974
-101.652
-93.7102
-67.053
-32.895
-2.15679
18.8472
29.5767
33.0395
32.3155
28.228
19.4126
4.52901
-15.1702
-34.9984
-48.5245
-50.6873
-40.3519
-20.9642
1.24628
20.3827
33.3351
40.4916
44.607
48.8107
54.8597
62.425
69.7176
74.8319
76.9479
76.8513
76.4844
77.6978
81.1293
85.997
91.0486
96.0663
102.529
112.511
126.19
139.285
143.242
128.774
91.2726
35.1299
-1e-006
-2.1e-005
-7.3e-005
-0.000144
-0.000201
-0.000201
-0.000134
-6e-005
-9.3e-005
-0.000312
-0.000674
-0.000979
-0.00099
-0.000639
-0.000171
-6.3e-005
-0.000686
-0.001919
-0.003031
-0.003057
-0.001542
0.00077
0.001824
-0.001057
-0.009993
-0.019326
0.034522
0.140231
0.17885
0.047678
-0.278349
-0.65477
-0.765517
-0.362414
0.393369
0.925421
0.525268
-0.9889
-2.82348
-3.52384
-2.01601
1.20437
3.85512
3.12274
-2.07615
-9.35408
-13.1435
-7.49138
10.0834
36.1448
62.1891
78.6956
80.2068
68.2502
50.3219
35.5428
29.6321
32.3787
39.0499
44.3674
46.3684
47.3687
51.4597
60.3938
70.8686
75.447
66.9496
43.9421
13.857
-8.41675
-6.36522
30.6895
102.177
195.596
290.907
367.627
411.477
417.657
390.27
339.181
276.312
213.028
158.686
119.739
98.8584
94.3635
100.509
109.499
114.571
112.601
104.912
95.4942
88.2903
85.0889
85.2729
87.3288
90.4556
94.9748
101.214
108.142
113.088
113.17
107.445
98.0317
89.0821
84.2621
84.4694
87.5811
90.4838
91.7579
92.8746
96.8787
105.276
115.522
121.308
115.76
95.6702
64.1149
29.4347
1.27688
-14.0826
-16.2225
-9.68811
-0.364338
8.56964
18.362
33.3437
57.4585
90.9194
128.941
163.609
187.66
197.987
197.09
191.857
190.205
197.25
213.245
233.988
253.346
266.479
271.751
270.632
265.937
259.833
253.012
245.185
236.367
227.466
219.772
213.543
207.129
197.425
181.675
159.356
132.686
105.297
79.9783
57.1272
35.1953
12.8548
-8.74929
-25.4174
-31.7312
-24.145
-3.44206
25.1105
54.0549
77.007
91.0886
97.421
99.7925
102.54
108.738
119.248
132.353
143.996
148.786
141.932
121.715
91.4368
59.0851
34.4792
24.6745
30.1661
44.0704
54.9918
52.4988
32.161
-2.26394
-40.6101
-70.7196
-83.425
-75.8039
-51.6005
-19.3014
11.0272
30.9228
35.725
25.5848
5.0051
-18.898
-38.9933
-50.4125
-51.6366
-44.2117
-31.3827
-16.6241
-2.78356
8.03956
14.5201
16.3572
14.7284
12.4498
13.2359
20.1821
34.3118
54.1304
76.4983
98.1089
116.661
130.96
140.427
144.686
143.839
138.946
131.969
124.695
117.254
107.562
92.5424
70.5245
43.4132
16.6426
-3.27687
-12.2794
-11.011
-4.20379
2.30319
5.03015
4.3289
3.24542
4.84041
9.94255
16.8326
22.7368
25.7808
25.9451
24.6204
23.3365
22.8559
23.1292
23.6177
23.8348
23.589
22.8283
21.5143
19.7547
17.9757
16.9961
17.7109
20.7816
26.2041
33.3333
41.101
48.2177
53.3996
55.712
54.936
51.8817
48.3121
46.2261
46.748
49.2711
51.4829
50.5808
45.0575
35.9069
26.4398
20.717
21.4846
28.7361
39.7368
50.3826
57.0613
57.9413
53.1428
44.1165
32.664
20.5674
9.54234
1.27756
-2.68045
-1.64266
3.57305
10.5566
16.1853
18.0302
15.6496
10.8518
6.80475
6.4867
11.1672
19.8739
29.9604
38.4771
43.5651
45.2251
45.1263
45.6027
48.2407
52.9482
57.8458
60.3603
58.9835
54.4882
49.8342
48.5268
52.2472
59.3304
65.1726
64.7756
55.802
40.3095
23.8417
12.3174
8.6838
11.3721
15.6188
16.6774
12.7505
5.80471
-0.248186
-2.27159
0.014437
4.1998
7.19941
7.65264
6.85998
7.9243
13.5396
23.8567
35.9076
44.6846
45.549
36.731
20.9602
5.50511
0.645371
16.7234
60.4899
131.83
221.961
314.448
389.163
428.435
423.164
376.391
302.369
221.279
151.903
105.265
82.1294
75.2043
74.3926
72.0766
65.828
57.6057
50.9052
47.783
47.4707
47.2749
44.3218
37.0464
25.6064
11.1663
-4.97441
-21.8429
-38.4039
-52.9184
-62.8918
-65.6797
-59.8644
-46.2571
-28.1843
-10.4289
2.72567
9.39801
10.7672
10.0469
10.5721
13.8347
18.9152
23.5286
25.9715
26.4974
27.1395
29.9696
35.2969
41.1859
44.804
44.7661
42.4366
41.3608
45.0112
54.4526
67.6063
80.848
91.4877
99.3921
106.744
116.077
128.155
141.35
152.812
160.358
163.73
164.258
163.665
162.902
161.808
159.722
156.143
150.799
143.236
132.658
118.407
100.885
82.1263
65.4019
53.4013
46.5914
42.7786
38.4793
31.2298
21.2695
11.3874
5.09029
4.31886
8.22887
13.957
18.4097
19.9023
18.5455
15.4647
11.7911
8.53884
7.26741
10.6234
21.9196
43.2825
73.3716
106.218
132.474
143.097
133.414
105.538
67.7745
31.1182
4.64814
-7.91813
-8.80391
-3.95229
0.484617
1.19564
-1.30056
-3.90394
-3.39707
1.48155
9.46173
17.7142
23.582
26.0148
25.6352
23.9165
21.9137
19.6587
16.3612
11.2587
4.65563
-1.91898
-6.23727
-6.49977
-2.40955
4.47465
11.3407
15.2616
14.5016
9.35367
2.01954
-4.41104
-7.3335
-5.56014
0.618166
10.2554
22.6465
37.6607
55.1273
73.8053
91.0142
103.337
108.404
106.45
100.493
95.0599
93.9616
98.466
106.897
115.86
122.024
123.361
119.541
111.601
101.39
91.4098
84.5422
83.5059
89.89
103.189
120.611
138.098
151.974
160.413
163.661
163.399
161.218
158.021
154.181
150.27
147.664
148.129
152.532
159.64
165.859
166.55
158.251
140.419
115.661
88.4438
62.9425
41.4861
24.4681
11.4994
2.73022
-0.633464
2.9958
14.2631
31.9018
52.802
73.2084
90.0253
101.638
107.925
109.844
109.103
108.099
109.544
115.483
125.833
137.225
143.467
137.993
117.361
83.8413
45.4877
12.8789
-5.73524
-8.34071
0.142551
10.7126
15.1769
10.0286
-2.67072
-17.6102
-29.7406
-36.9415
-39.7871
-39.3263
-34.7817
-23.2675
-1.98434
28.665
63.5793
94.6994
115.141
123.233
123.597
124.299
131.744
146.73
164.233
176.988
180.356
175.2
166.845
161.192
160.72
163.133
163.375
157.535
145.848
132.674
123.516
121.13
123.352
124.001
116.194
96.4188
66.9724
35.7697
14.0193
12.6463
38.9983
94.6392
174.555
267.861
359.747
434.555
479.524
488.008
461.229
407.624
340.099
272.27
215.166
175.198
153.865
148.507
153.87
163.72
172.534
177.11
177.373
176.078
176.952
182.201
190.826
198.981
202.253
198.758
190.846
184.044
183.719
191.398
203.058
210.79
206.865
187.743
155.846
118.147
82.617
54.7085
35.648
23.0857
13.3792
3.84581
-6.27275
-16.2161
-24.8749
-31.7324
-37.0321
-41.2432
-44.4494
-46.1705
-45.7611
-42.9532
-38.2137
-32.5984
-27.123
-22.1769
-17.4151
-12.1925
-6.34519
-0.70376
3.1583
3.91501
1.57765
-2.15811
-4.40024
-2.39259
5.20686
17.6118
32.4094
46.643
57.9616
65.2673
68.5241
68.2565
65.056
59.431
51.9739
43.6806
35.8897
29.8148
26.0025
24.0053
22.6318
20.6532
17.5306
13.894
11.209
10.9472
13.5738
18.1476
22.7828
25.6616
26.082
24.7923
23.5205
23.9672
26.7933
31.5667
37.291
43.1983
49.1551
55.3692
61.8324
67.9628
72.7663
75.5089
76.1917
75.6844
75.3632
76.6034
80.4239
87.4234
97.5309
109.653
121.516
130.168
133.338
130.695
124.385
117.852
113.476
110.721
105.948
94.5456
74.2168
47.2005
19.6971
-1.09266
-10.8362
-10.2835
-4.31879
1.23793
3.12695
2.12748
1.58851
4.49815
10.9492
17.8921
21.0754
17.9482
9.53852
0.074554
-5.20607
-2.88186
7.02106
21.2621
35.0709
44.4211
47.6338
45.7622
41.7567
38.922
39.5652
44.0449
50.7773
57.1593
60.9755
61.639
60.6496
60.9082
65.1666
74.4486
87.2374
100.069
109.181
112.262
109.495
103.224
96.4881
91.4236
88.3214
85.8949
82.1176
75.354
65.0542
51.9066
37.518
23.9408
13.1758
6.65665
4.95685
7.82884
14.546
24.4248
37.2085
53.0117
71.6744
92.1915
112.651
130.861
145.496
156.982
167.263
178.423
191.046
203.231
211.204
211.226
201.693
184.418
163.959
145.555
132.869
126.446
123.972
121.903
117.457
109.658
99.1841
87.1998
74.3054
60.2544
44.7087
28.4413
13.8417
3.97655
0.867857
3.91428
9.68319
13.5376
12.3399
6.66814
0.796699
0.482279
9.57961
27.5812
49.5593
68.5267
78.7066
78.0137
68.4102
54.3353
40.3198
29.1475
21.5143
16.5978
13.0882
10.0644
7.32109
5.2721
4.55326
5.61022
8.07441
10.5918
11.453
9.6564
5.98973
2.9447
3.03748
6.57284
10.291
8.38726
-4.03829
-26.8612
-52.7816
-68.9339
-61.757
-23.0029
46.331
135.786
228.867
307.888
358.676
373.729
353.46
305.674
243.569
182.233
134.232
105.998
96.6093
99.8032
107.985
115.934
122.294
128.507
136.221
145.464
154.751
162.697
169.531
176.964
186.569
197.802
207.479
211.164
205.92
192.304
174.321
157.356
145.339
138.913
135.466
130.912
122.321
109.464
94.8606
82.1387
73.8939
70.0755
67.9356
63.6786
54.7364
41.471
27.1384
15.9738
10.6789
10.7596
12.8414
12.7876
8.53188
1.53779
-3.85213
-2.9664
6.2769
21.7793
37.9981
48.7168
50.083
42.4589
30.0844
18.909
13.6807
15.9091
23.5963
32.7702
39.6494
42.3102
41.1104
37.8437
34.2344
30.9032
27.2687
22.335
15.7315
8.31187
1.86233
-2.02258
-2.96627
-2.05281
-0.940924
-0.52371
-0.028141
2.48541
8.48978
17.186
25.1252
27.8796
23.0171
12.266
1.00216
-4.78969
-2.46936
5.16786
11.3587
9.66324
-1.56721
-17.7582
-30.6438
-33.3014
-24.2391
-7.99718
7.94625
17.6859
19.8073
17.246
14.498
14.5431
17.4466
21.211
23.7609
24.4257
24.0841
24.2408
25.8808
28.9886
32.7891
36.3832
39.1578
41.0345
42.4302
44.2153
47.4321
52.7225
59.7262
66.8354
-1e-006
-1.3e-005
-4.7e-005
-0.000104
-0.000163
-0.00019
-0.000169
-0.00013
-0.000137
-0.000242
-0.00043
-0.000604
-0.000645
-0.000509
-0.000306
-0.000251
-0.000509
-0.001024
-0.001476
-0.001458
-0.000789
0.00022
0.00069
-0.0007
-0.005435
-0.011009
0.020798
0.086949
0.141575
0.094698
-0.123596
-0.419868
-0.574278
-0.438314
-0.052793
0.257785
0.125234
-0.561411
-1.4473
-1.82721
-1.20131
0.198714
1.3526
1.04059
-1.15308
-4.16331
-5.70738
-3.20168
5.12823
19.4708
38.3464
58.9392
77.4023
89.083
89.2603
74.6488
45.507
7.01921
-31.3864
-59.2174
-69.4151
-61.5868
-41.8953
-19.496
-1.52432
10.0833
18.1081
26.4741
36.4958
45.696
49.9395
47.1659
39.6611
32.9408
31.9693
37.4736
45.0811
48.029
41.5546
26.0768
7.07902
-8.03762
-14.1948
-11.1742
-3.13908
4.30637
7.61763
6.9361
5.29059
6.22642
11.3876
19.5102
27.4283
32.0783
32.2456
28.9765
24.4319
20.3038
16.9125
13.38
8.86607
3.798
0.000211
-0.329412
3.75228
11.1564
19.3483
25.9787
30.4273
34.158
39.5662
48.1577
59.1134
69.4282
75.6043
75.6627
70.3439
62.7577
56.7357
54.8012
56.8886
60.5563
62.469
60.4907
55.0968
49.4021
47.567
52.4748
63.7844
77.4508
87.26
87.7653
77.2801
59.6823
43.8904
41.2591
61.826
110.248
183.168
268.982
350.411
409.217
431.886
414.096
361.915
289.226
212.388
144.576
92.43
56.1087
32.1974
17.2394
9.61996
9.09977
14.9047
24.3942
33.3727
38.0213
36.9195
31.6541
25.5351
21.2781
19.2133
17.3933
13.3463
6.16123
-2.64712
-10.0927
-13.721
-13.384
-11.4168
-11.0917
-14.4594
-20.8582
-27.1135
-29.374
-25.4595
-16.3721
-5.82699
1.99116
5.06878
4.85179
5.20893
9.62757
18.603
28.928
35.7635
35.9134
30.4493
24.5213
24.4616
34.1789
53.0578
76.7504
100.021
119.777
136.344
152.429
170.836
192.524
216.093
238.545
256.615
267.569
269.918
263.811
251.13
235.187
219.729
207.461
198.87
192.143
184.494
174.044
160.994
147.329
135.303
125.768
117.691
109.033
98.268
85.4738
72.1525
60.0302
49.9223
41.257
32.8384
23.8932
14.6658
6.39125
0.485462
-2.31019
-2.4387
-1.30775
-0.404884
-0.463382
-1.10049
-1.28489
-0.093883
2.56003
5.72151
8.03396
8.55954
7.30127
5.10528
3.14107
2.54331
4.19511
8.65882
15.8565
24.4573
31.5651
33.751
29.1575
19.9745
13.2987
18.6941
43.2573
86.74
139.678
186.459
212.168
209.689
182.937
144.69
110.159
89.8912
85.9225
92.605
100.936
103.547
97.6649
85.1376
70.3541
57.7384
49.9688
47.6585
49.7264
54.1384
58.6372
61.4334
61.8833
60.5695
58.9957
58.8505
61.198
65.8385
71.1992
74.7745
74.0425
67.4531
55.3054
39.8802
24.9915
14.7299
11.7626
16.0636
24.7627
33.3559
37.8509
36.8461
32.2329
28.1383
28.6605
35.4874
47.0293
59.1836
67.3971
68.8618
63.7163
54.7587
45.8803
40.1769
38.6062
39.8482
41.2781
40.4424
36.365
30.0093
23.584
19.3788
18.6394
21.0138
24.909
28.2763
29.5168
28.0716
24.4849
20.0786
16.365
14.3908
14.3542
15.3621
15.8285
14.3162
10.54
5.77712
2.19893
1.58755
4.11469
8.04198
10.9652
11.4204
10.043
9.22061
11.3858
17.0312
24.0734
29.1231
29.7521
26.2794
21.5885
19.1021
20.4558
24.2607
27.1336
26.0882
20.6454
13.1122
7.15421
5.63497
8.95697
14.9675
20.2077
21.6292
17.7592
9.16855
-1.95796
-12.608
-19.9806
-22.5497
-20.725
-17.1339
-15.6905
-19.6816
-29.3199
-40.1048
-43.1215
-27.8271
13.6337
82.1281
169.533
259.928
334.126
375.796
376.861
340.021
277.457
206.493
143.901
100.901
80.9302
80.278
90.9494
104.286
114.122
118.244
117.899
116.243
116.299
119.38
124.609
129.683
132.366
131.956
129.679
127.75
127.603
128.356
126.757
118.96
102.942
80.2568
55.6884
35.0245
22.1578
17.4076
17.832
19.3625
19.1728
16.8301
13.6911
11.292
9.89819
8.4811
5.9323
2.38863
-0.419925
-0.16963
4.47213
12.8116
22.6941
32.0699
40.6643
50.2938
63.5713
81.7465
103.321
124.401
140.885
150.885
155.981
160.478
169.03
184.007
204.207
225.472
242.601
251.712
251.538
243.626
231.426
218.781
208.483
201.532
197.026
192.645
185.66
173.999
157.078
136.259
114.385
94.8108
80.3256
72.1459
69.4504
69.7617
69.7587
66.5522
58.7663
47.3017
34.8925
25.0409
20.4177
21.7709
27.7668
35.7911
43.1536
48.1051
50.2545
50.2159
49.1562
48.273
48.6817
51.201
56.0092
62.2973
67.9844
70.116
66.0825
55.0956
39.1092
22.5684
10.9049
8.25155
15.438
29.4804
44.7962
55.744
58.9081
54.504
46.0305
38.3736
35.5064
38.7898
46.7206
55.8865
62.602
64.4171
60.7874
52.9359
42.963
32.9109
24.2429
17.819
14.0629
13.2981
15.5416
20.1558
25.392
28.6695
27.5256
20.9313
10.328
-0.465897
-6.81974
-5.62245
2.8081
14.5367
24.0523
27.24
23.8622
17.5125
13.3115
14.6375
21.0701
29.0199
34.1815
34.4664
31.109
27.3358
25.6572
25.8501
25.3471
21.7719
15.3581
9.57269
9.04488
16.1986
29.0303
41.9362
49.0391
47.8251
40.5987
32.7366
29.2333
31.7813
38.2175
44.6311
48.2974
49.3902
50.3769
53.9941
61.0627
69.7304
76.5093
78.2362
73.7795
64.6022
53.9928
45.5135
41.4838
42.1002
45.5739
49.3357
51.5227
52.0248
52.3623
54.4947
59.2095
65.2744
70.1831
71.9683
70.9592
69.8925
72.2776
79.91
91.063
101.004
104.635
99.6936
88.3258
75.9897
68.3627
68.3705
74.5619
82.1018
85.4359
80.9906
68.6503
51.6153
34.6688
21.9987
15.5264
14.3599
15.8753
17.5773
18.6068
19.9181
22.9108
27.3658
30.1861
26.6611
14.119
-4.37095
-18.6932
-14.7388
18.9981
84.5252
171.191
258.5
323.691
350.503
334.779
284.78
216.656
147.967
92.1045
55.6439
38.4248
35.475
39.5937
43.7894
43.3576
36.83
25.9224
14.2623
5.4242
1.15007
0.802696
2.19129
3.14819
2.72809
1.39425
0.432544
0.805423
2.4702
4.53152
5.92502
6.07993
5.20203
3.99872
3.09379
2.71134
2.49687
1.99892
1.2015
0.838099
2.16748
6.4171
13.9514
23.8274
33.8186
41.3548
44.6482
43.6072
39.981
36.4836
35.5591
38.3439
44.4526
52.4982
61.0883
69.4006
77.3085
84.8866
91.9358
97.8872
102.196
105.055
107.647
111.664
118.108
126.406
134.284
138.852
138.184
132.485
123.966
115.534
108.99
103.974
98.3193
89.5028
76.441
60.5703
45.3749
34.7539
31.0419
33.7248
39.5306
43.9127
43.0963
35.8581
23.9409
11.2319
1.93915
-1.27968
1.63895
8.38452
15.5365
20.1619
20.9107
18.3363
14.2913
10.9381
9.93483
11.8493
16.1851
21.6387
26.5391
29.3277
29.1481
26.0309
21.0753
16.121
13.1733
13.5644
17.4972
23.8818
30.8254
36.3561
38.9847
37.9084
33.218
25.8793
17.5986
10.5005
6.58474
6.84967
10.784
16.3314
20.8812
22.5279
21.0047
17.8699
15.5958
16.1205
19.8707
25.7108
31.8378
36.8289
40.2226
42.2824
43.3648
43.6358
43.2442
42.7272
43.1547
45.6331
50.5096
56.7367
62.151
64.6731
63.6169
60.2493
57.1779
56.9142
60.4547
66.6346
72.807
76.2962
75.8029
71.9328
66.8918
63.2942
62.9086
65.8204
70.5979
74.8766
76.5469
74.7446
70.1443
64.5272
60.1529
58.9087
61.78
68.4672
77.3786
85.6431
89.6751
86.0517
73.1215
52.4089
28.9935
10.4202
3.98677
13.3386
36.2246
64.7612
88.4136
98.5233
92.2772
73.93
52.7844
38.5959
36.6783
45.3606
57.1961
63.2448
58.0668
42.6749
23.615
8.90725
3.31719
5.88286
11.1082
13.105
9.70652
3.98537
2.03315
8.58638
23.217
39.8157
50.0352
48.3296
35.5102
18.5458
6.51225
5.31698
14.4058
27.5072
36.5234
36.239
26.8961
13.3969
2.09466
-2.80883
-1.06994
4.52443
10.6567
15.6559
20.1408
25.962
34.1316
43.6148
51.5862
55.0137
52.6292
46.1233
39.471
36.8298
40.0794
47.4175
54.2797
55.9132
50.4316
40.2297
30.9127
28.0875
33.9884
46.105
58.7085
66.4367
67.4723
64.5487
62.8382
66.1573
73.7937
80.1609
77.482
60.4944
30.5396
-3.17225
-25.9319
-22.9429
14.6222
85.2116
176.163
267.111
336.376
367.912
356.23
307.362
235.829
159.101
91.9277
42.6388
12.4408
-2.59181
-8.3198
-9.64046
-9.10851
-7.05222
-2.9138
3.33003
10.3753
15.7867
17.1466
13.6665
6.98999
0.811854
-0.728789
4.89223
17.0387
31.8058
43.6712
47.9163
42.7348
30.0502
14.6648
1.98281
-4.10456
-2.42277
5.48579
16.7623
28.7402
39.9466
50.2308
60.1628
70.3315
80.9284
91.7521
102.578
113.262
123.772
134.188
144.556
154.882
165.118
175.227
185.211
195.068
204.852
214.818
225.484
237.415
250.902
265.619
280.6
294.478
306.077
314.681
320.021
322.036
320.616
315.708
307.552
296.918
285.187
273.819
263.688
254.534
245.03
233.285
217.724
197.796
174.207
148.551
122.642
97.9795
75.3265
54.9339
36.9214
21.7253
10.3379
4.02717
3.71446
9.28107
19.2291
31.1142
42.4556
51.6685
58.5322
63.5588
67.0288
68.3689
66.3582
60.0984
50.1868
38.9672
29.6828
24.682
24.1019
25.917
27.4131
27.0669
25.5728
25.2063
28.1436
34.8679
43.7545
51.991
57.1471
58.2712
56.0505
52.2302
48.6888
46.8388
47.3929
51.1733
57.3914
65.7092
74.0417
80.0922
82.1154
79.3642
72.2378
62.2612
51.8856
43.7439
39.7753
40.5442
45.0686
51.4925
58.0839
63.8973
68.4877
71.1086
70.1304
63.511
50.415
32.7859
15.5678
4.73245
3.96279
11.9397
22.2819
26.5756
18.9894
-0.046141
-23.6187
-41.8217
-46.8103
-36.7252
-16.2177
6.41283
23.524
31.5574
31.777
28.5656
26.626
28.5664
34.0535
40.6863
45.6409
47.2885
45.8435
42.9857
40.6597
39.9318
40.5216
41.3006
41.2436
40.1707
38.8031
37.9565
37.5405
36.4209
33.3308
28.0224
21.9821
17.8535
17.6909
21.3929
26.4862
29.4755
27.9909
22.4769
16.0825
12.8173
15.2534
22.9595
32.6592
40.0398
41.9269
37.8538
30.0436
22.0573
16.9149
15.8586
18.1407
21.848
25.2223
27.5616
29.3365
31.6016
34.8719
38.5613
41.1583
41.1263
38.0652
33.1198
28.4673
26.1497
26.8428
29.4498
31.8938
32.5337
31.1877
29.4047
29.6699
33.9182
42.5351
54.0369
65.8195
75.2889
80.702
81.6494
79.0113
74.5108
70.2548
68.0365
68.4958
70.6467
72.0579
69.9825
62.8235
51.3656
38.6236
28.4678
23.7136
24.6615
29.2086
34.1496
36.7601
35.7763
31.1147
23.0777
11.9871
-1.13761
-13.4937
-19.8722
-13.4063
12.184
59.7002
126.238
202.596
274.803
327.439
347.952
330.74
279.48
206.661
129.952
66.5126
27.2359
13.7161
19.1676
32.5651
