0
0
0
0
0
0
0
0
0
0
0
0
0
0
0
0
0
0
0
0
0
0
0
0
0
0
0
0
0
0
0
0
0
0
0
0
0
0
0
0
0
0
0
0
0
0
0
0
0
0
0
0
0
0
0
0
0
0
0
0
0
0
0
0
0
0
0
0
0
0
0
0
0
0
0
0
0
0
0
0
0
0
0
0
0
0
0
0
0
0
0
0
0
0
0
0
0
0
0
0
0
0
0
0
0
0
0
0
0
0
0
0
0
0
0
0
0
0
0
0
0
0
0
0
0
0
0
0
0
0
0
0
0
0
0
0
0
0
0
0
0
0
0
0
0
0
0
0
0
0
0
0
0
0
0
0
0
0
0
0
0
0
0
0
0
0
0
0
0
0
0
0
0
0
0
0
0
0
0
0
0
0
0
0
0
0
0
0
0
0
0
0
0
0
0
0
0
0
0
0
0
0
0
0
0
0
0
0
0
0
0
0
0
0
0
0
0
0
0
0
0
0
0
0
0
0
0
0
0
0
0
0
0
0
0
0
0
0
0
0
0
0
0
0
0
0
0
0
0
0
0
0
0
0
0
0
0
0
0
0
0
0
0
0
0
0
0
0
0
0
0
0
0
0
0
0
0
0
0
0
0
0
0
0
0
0
0
0
0
0
0
0
0
0
0
0
0
0
0
0
0
0
0
0
0
0
0
0
0
0
0
0
0
0
0
0
0
0
0
0
0
0
0
0
0
0
0
0
0
0
0
0
0
0
0
0
0
0
0
0
0
0
0
0
0
0
0
0
0
0
0
0
0
0
0
0
0
0
0
0
0
0
0
0
0
0
0
0
0
0
0
0
0
0
0
0
0
0
0
0
0
0
0
0
0
0
0
0
0
0
0
0
0
0
0
0
0
0
0
0
0
0
0
0
0
0
0
0
0
0
0
0
0
0
0
0
0
0
0
0
0
0
0
0
0
0
0
0
0
0
0
0
0
0
0
0
0
0
0
0
0
0
0
0
0
0
0
0
0
0
0
0
0
0
0
0
0
0
0
0
0
0
0
0
0
0
0
0
0
0
0
0
0
0
0
0
0
0
0
0
0
0
0
0
0
0
0
0
0
0
0
0
0
0
0
0
0
0
0
0
0
0
0
0
0
0
0
0
0
0
0
0
0
0
0
0
0
0
0
0
0
0
0
0
0
0
0
0
0
0
0
0
0
0
0
0
0
0
0
0
0
0
0
0
0
0
0
0
0
0
0
0
0
0
0
0
0
0
0
0
0
0
0
0
0
0
0
0
0
0
0
0
0
0
0
0
0
0
0
0
0
0
0
0
0
0
0
0
0
0
0
0
0
0
0
0
0
0
0
0
0
0
0
0
0
0
0
0
0
0
0
0
0
0
0
0
0
0
0
0
0
0
0
0
0
0
0
0
0
0
0
0
0
0
0
0
0
0
0
0
0
0
0
0
0
0
0
0
0
0
0
0
0
0
0
0
0
0
0
0
0
0
0
0
0
0
0
0
0
0
0
0
0
0
0
0
0
0
0
0
0
0
0
0
0
0
0
0
0
0
0
0
0
0
0
0
0
0
0
0
0
0
0
0
0
0
0
0
0
0
0
0
0
0
0
0
0
0
0
0
0
0
0
0
0
0
0
0
0
0
0
0
0
0
0
0
0
0
0
0
0
0
0
0
0
0
0
0
0
0
0
0
0
0
0
0
0
0
0
0
0
0
0
0
0
0
0
0
0
0
0
0
0
0
0
0
0
0
0
0
0
0
0
0
0
0
0
0
0
0
0
0
0
0
0
0
0
0
0
0
0
0
0
0
0
0
0
0
0
0
0
0
0
0
0
0
0
0
0
0
0
0
0
0
0
0
0
0
0
0
0
0
0
0
0
0
0
0
0
0
0
0
0
0
0
0
0
0
0
0
0
0
0
0
0
0
0
0
0
0
0
0
0
0
0
0
0
0
0
0
0
0
0
0
0
0
0
0
0
0
0
0
0
0
0
0
0
0
0
0
0
0
0
0
0
0
0
0
0
0
0
0
0
0
0
0
0
0
0
0
0
0
0
0
0
0
0
0
0
0
0
0
0
0
0
0
0
0
0
0
0
0
0
0
0
0
0
0
0
0
0
0
0
0
0
0
0
0
0
0
0
0
0
0
0
0
0
0
0
0
0
0
0
0
0
0
0
0
0
0
0
0
0
0
0
0
0
0
0
0
0
0
0
0
0
0
0
0
0
0
0
0
0
0
0
0
0
0
0
0
0
0
0
0
0
0
0
0
0
0
0
0
0
0
0
0
0
0
0
0
0
0
0
0
0
0
0
0
0
0
0
0
0
0
0
0
0
0
0
0
0
0
0
0
0
0
0
0
0
0
0
0
0
0
0
0
0
0
0
0
0
0
0
0
0
0
0
0
0
0
0
0
0
0
0
0
0
0
0
0
0
0
0
0
0
0
0
0
0
0
0
0
0
0
0
0
0
0
0
0
0
0
0
0
0
0
0
0
0
0
0
0
0
0
0
0
0
0
0
0
0
0
0
0
0
0
0
0
0
0
0
0
0
0
0
0
0
0
0
0
0
0
0
0
0
0
0
0
0
0
0
0
0
0
0
0
0
0
0
0
0
0
0
0
0
0
0
0
0
0
0
0
0
0
0
0
0
0
0
0
0
0
0
0
0
0
0
0
0
0
0
0
0
0
0
0
0
0
0
0
0
0
0
0
0
0
0
0
0
0
0
0
0
0
0
0
0
0
0
0
0
0
0
0
0
0
0
0
0
0
0
0
0
0
0
0
0
0
0
0
0
0
0
0
0
0
0
0
0
0
0
0
0
0
0
0
0
0
0
0
0
0
0
0
0
0
0
0
0
0
0
0
0
0
0
0
0
0
0
0
0
0
0
0
0
0
0
0
0
0
0
0
0
0
0
0
0
0
0
0
0
0
0
0
0
0
0
0
0
0
0
0
0
0
0
0
0
0
0
0
0
0
0
0
0
0
0
0
0
0
0
0
0
0
0
0
0
0
0
0
0
0
0
0
0
0
0
0
0
0
0
0
0
0
0
0
0
0
0
0
0
0
0
0
0
0
0
0
0
0
0
0
0
0
0
0
0
0
0
0
0
0
0
0
0
0
0
0
0
0
0
0
0
0
0
0
0
0
0
0
0
0
0
0
0
0
0
0
0
0
0
0
0
0
0
0
0
0
0
0
0
0
0
0
0
0
0
0
0
0
0
0
0
0
0
0
0
0
0
0
0
0
0
0
0
0
0
0
0
0
0
0
0
0
0
0
0
0
0
0
0
0
0
0
0
0
0
0
0
0
0
0
0
0
0
0
0
0
0
0
0
0
0
0
0
0
0
0
0
0
0
0
0
0
0
0
0
0
0
0
0
0
0
0
0
0
0
0
0
0
0
0
0
0
0
0
0
0
0
0
0
0
0
0
0
0
0
0
0
0
0
0
0
0
0
0
0
0
0
0
0
0
0
0
0
0
0
0
0
0
0
0
0
0
0
0
0
0
0
0
0
0
0
0
0
0
0
0
0
0
0
0
0
0
0
0
0
0
0
0
0
0
0
0
0
0
0
0
0
0
0
0
0
0
0
0
0
0
0
0
0
0
0
0
0
0
0
0
0
0
0
0
0
0
0
0
0
0
0
0
0
0
0
0
0
0
0
0
0
0
0
0
0
0
0
0
0
0
0
0
0
0
0
0
0
0
0
0
0
0
0
0
0
0
0
0
0
0
0
0
0
0
0
0
0
0
0
0
0
0
0
0
0
0
0
0
0
0
0
0
0
0
0
0
0
0
0
0
0
0
0
0
0
0
0
0
0
0
0
0
2.90097e-018
1.10849e-016
1.65759e-015
1.25645e-014
5.48651e-014
1.60377e-013
3.3502e-013
4.96424e-013
4.47563e-013
-8.86116e-015
-7.79463e-013
-1.19748e-012
-1.64634e-013
2.94975e-012
6.96456e-012
8.34968e-012
3.03707e-012
-9.26967e-012
-2.10761e-011
-1.84369e-011
9.02514e-012
5.3311e-011
8.11931e-011
4.97255e-011
-5.45918e-011
-1.76466e-010
-1.94525e-010
-1.77712e-012
3.41411e-010
5.1385e-010
1.0727e-010
-8.61686e-010
-1.44269e-009
-2.01569e-012
4.21384e-009
8.89947e-009
8.27673e-009
-2.97461e-009
-2.20063e-008
-3.25632e-008
-1.16313e-008
4.86016e-008
1.16139e-007
1.19736e-007
-2.99351e-009
-2.24866e-007
-3.82044e-007
-2.43318e-007
2.8695e-007
9.51193e-007
1.13362e-006
2.36521e-007
-1.6654e-006
-3.34706e-006
-2.84897e-006
9.25154e-007
6.26802e-006
8.3579e-006
2.34283e-006
-1.09488e-005
-2.1304e-005
-1.36275e-005
1.78452e-005
5.46969e-005
5.64197e-005
-8.87339e-006
-0.000118487
-0.000176714
-6.84933e-005
0.000220233
0.000503627
0.000450461
-0.000151686
-0.00106269
-0.00150929
-0.000634648
0.00162856
0.00390119
0.00376676
-0.000453207
-0.0074786
-0.0123738
-0.00904252
0.00457431
0.0220376
0.0294187
0.0139643
-0.0234332
-0.061464
-0.0666033
-0.0166627
0.0736314
0.146773
0.131146
-0.00414815
-0.203159
-0.328808
-0.238814
0.10042
0.538869
0.783101
0.565273
-0.142491
-1.01781
-1.50371
-1.14042
0.0636853
1.48609
2.14779
1.31009
-0.921329
-3.41832
-4.52771
-3.08274
0.637589
4.68019
6.27427
3.48443
-3.22262
-10.5274
-13.4701
-7.95296
6.68804
26.5188
44.1376
51.815
45.2128
25.7934
0.572803
-20.8252
-30.4688
-25.6946
-10.2096
7.81235
19.6875
20.2994
10.3567
-4.17098
-15.0617
-15.7857
-4.52019
15.102
35.7317
49.6181
51.9383
42.6806
26.3599
9.84552
-0.62278
-1.88693
5.19964
16.606
27.172
32.8515
32.1631
26.3344
18.276
11.0341
6.51107
4.99047
5.52555
6.80739
7.94939
8.76976
9.51433
10.3172
10.8414
10.3975
8.50112
5.50249
2.81814
2.48758
6.17906
14.1396
24.6988
34.6974
40.7265
40.6073
34.368
24.2126
13.4996
5.26689
1.06017
0.620814
2.48937
5.07678
7.54113
9.99153
12.9932
16.7809
20.7424
23.5283
23.7292
20.7001
15.0229
8.32557
2.56045
-0.852519
-1.56504
-0.280885
1.73793
3.31869
3.83464
3.29626
2.13614
0.894548
0.00442671
-0.252818
0.31116
1.82912
4.32218
7.58227
11.0986
14.1234
15.8889
15.8876
14.0841
10.9505
7.30939
4.05361
1.86793
1.07006
1.63329
3.37286
6.20226
10.321
16.2071
24.3652
34.9088
47.1732
59.5988
70.0353
76.4208
77.5756
73.7453
66.6136
58.7541
52.771
50.5238
52.7559
59.1942
68.9231
80.733
93.2577
104.951
114.131
119.284
119.6
115.426
108.277
100.194
92.6871
85.8085
77.9717
66.8143
50.8435
31.1244
12.1226
1.11067
6.1429
33.23
83.7165
152.843
230.095
301.353
352.308
372.169
356.618
309.112
240.092
164.28
96.7916
49.2328
26.9177
28.0336
44.9233
66.9831
84.1726
89.9894
83.0017
66.5601
46.936
30.6489
21.9919
21.6479
26.8505
32.9324
35.5468
32.5767
24.9002
15.7089
8.74767
6.35821
8.29265
11.883
13.4783
10.4325
2.65844
-7.02373
-13.9276
-13.459
-3.10753
16.3995
41.2508
65.9066
85.064
95.4499
96.7867
91.6491
84.3546
79.3551
79.7268
86.271
97.4912
110.393
121.763
129.425
132.982
133.776
134.125
136.181
140.957
147.927
155.393
161.395
164.725
165.543
165.296
165.97
169.039
174.586
181.016
185.492
184.951
177.275
162.162
141.334
118.004
95.7844
77.4785
64.2154
55.2797
48.6853
42.2286
34.544
25.6926
17.0388
10.5175
7.6786
8.98952
13.7109
20.3465
27.3698
33.8099
39.4044
44.3023
48.5737
51.8813
53.5505
53.0076
50.3081
46.3918
42.8402
41.1894
42.1242
44.9842
47.8921
48.5148
45.1438
37.59
27.4385
17.4882
10.5858
8.37796
10.5809
15.1598
19.384
21.2836
20.7896
19.9403
21.9602
29.5837
43.4152
61.1743
78.2944
89.6982
91.9716
84.9118
71.6809
57.4445
47.1032
43.1717
44.7948
48.3461
49.2992
44.4631
33.5257
19.2034
5.97375
-1.97375
-2.598
3.15892
11.889
19.2862
22.0142
19.0486
11.9614
4.12119
-0.758568
-0.0712914
6.79966
18.4246
31.997
44.3774
53.1022
57.0482
56.6212
53.4905
49.9827
48.2969
49.7297
54.1323
59.8107
63.9929
63.7992
57.4144
44.999
28.8941
12.9212
0.975956
-4.52176
-3.62196
1.22024
6.29961
8.40476
6.32567
1.37189
-3.38715
-4.8057
-1.41978
5.64527
13.1341
17.3005
15.9067
9.54022
1.53475
-3.50113
-1.81754
7.75714
23.3585
41.0652
56.7426
67.7694
73.7985
76.2895
77.2246
77.8166
77.9218
76.3883
72.0057
64.4126
54.4162
43.5946
33.5009
25.0035
18.1645
12.6808
8.5368
6.36866
7.21033
11.6772
19.0328
26.7552
31.0662
28.4526
17.6849
1.458
-13.2517
-16.6374
0.849064
44.6975
113.242
196.65
278.737
341.326
369.775
357.722
309.215
237.342
159.805
93.1086
47.5825
25.069
19.9466
22.7591
24.6869
20.9104
11.6142
0.588445
-7.51276
-9.72515
-5.94743
1.56579
9.77034
16.3879
20.595
22.667
23.0844
21.8753
18.6963
13.5456
7.49937
2.79423
1.99594
6.62712
16.054
27.3704
36.4846
39.9329
36.5094
27.8798
17.877
10.8483
9.87037
15.6425
26.465
39.1589
50.3928
57.8098
60.5749
59.3049
55.5965
51.4459
48.7628
49.0421
53.1608
61.2595
72.7059
86.1773
99.8887
111.951
120.791
125.537
126.265
124.03
120.609
117.985
117.65
119.956
123.796
126.837
126.368
120.461
108.98
93.8687
78.4766
66.1212
58.545
55.066
52.9351
48.8022
40.574
28.6743
15.9855
6.44134
2.98126
5.95769
12.8623
19.5353
22.2206
19.3852
12.3711
4.59581
-0.214769
0.19174
5.67639
14.0138
22.124
27.5127
29.2076
27.8389
24.9978
22.3262
20.8228
20.6334
21.2902
22.1589
22.8199
23.2179
23.5782
24.1946
25.2295
26.6155
28.0803
29.255
29.8
29.4914
28.2437
26.0816
23.1028
19.4655
15.4087
11.2714
7.46524
4.38307
2.28295
1.23233
1.18264
2.16204
4.46869
8.69747
15.497
25.1183
36.9889
49.5994
60.8659
68.8651
72.5887
72.2963
69.2282
64.8026
59.7434
53.6704
45.4492
34.1542
20.1096
5.36547
-6.76293
-12.9623
-11.4021
-2.68554
10.2295
23.1268
32.1343
35.1004
32.1632
25.3561
17.5456
11.2509
7.84885
7.40173
9.0223
11.4841
13.7669
15.3502
16.2325
16.7656
17.4174
18.5495
20.259
22.3176
24.2352
25.4494
25.5921
24.7194
23.3729
22.3881
22.4866
23.8227
25.723
26.8141
25.5679
21.0781
13.7233
5.35494
-1.17891
-3.06817
1.26778
11.3795
24.8178
38.0875
48.1689
53.9154
56.6095
59.3034
65.1552
75.5203
88.7715
100.542
105.412
99.3171
81.5292
55.2247
26.3365
1.24858
-15.5284
-22.5931
-21.3269
-14.3982
-4.10086
8.47659
23.0658
39.0625
54.576
66.5384
72.0195
70.0226
62.5871
54.3056
50.2768
53.5147
63.3006
75.5468
85.1252
88.9185
87.8016
86.2412
89.5132
99.9685
114.509
124.978
121.721
98.813
58.4061
11.812
-23.6131
-30.7645
0.308919
67.8465
158.137
249.74
320.467
354.392
346.318
302.31
236.51
165.788
104.363
60.2157
34.2294
21.8579
16.2707
11.5637
4.82985
-3.49682
-10.8465
-14.4837
-13.226
-8.11667
-1.81513
2.89525
4.66349
4.37055
4.75736
9.07219
19.4226
35.6517
55.2764
74.4886
89.7095
98.9628
102.471
102.291
101.244
101.683
104.627
109.564
114.91
118.829
120.045
118.307
114.364
109.537
105.1
101.789
99.6332
98.1595
96.8025
95.2706
93.6466
92.1878
90.9913
89.7885
88.0531
85.3766
81.8577
78.1928
75.3371
73.904
73.7
73.7618
72.9637
70.8593
68.1927
66.64
67.7969
71.9402
77.3385
80.6605
78.4311
68.8409
52.9295
34.4307
18.2636
8.39623
6.15966
9.85959
15.8354
20.3625
21.3883
19.2458
16.0778
14.391
15.5608
19.0571
22.7257
23.9105
20.8181
13.4706
3.83002
-4.93448
-9.71318
-8.73878
-2.37627
6.90217
15.3782
19.4828
17.1938
8.86371
-2.89047
-14.2192
-21.5687
-23.0446
-19.0191
-11.7498
-4.24547
1.04592
3.1135
2.48318
0.616402
-0.985053
-1.48183
-0.904885
0.123273
0.895429
1.03344
0.611712
-0.00166702
-0.42471
-0.475108
-0.21722
0.136725
0.375122
0.391709
0.208565
-0.0634343
-0.285487
-0.344917
-0.195888
0.114165
0.444792
0.608882
0.466418
0.0268558
-0.509948
-0.830785
-0.693358
-0.121033
0.530603
0.724574
0.0685438
-1.36518
-2.95421
-3.80131
-3.27947
-1.54667
0.326629
0.808528
-1.19898
-5.46199
-10.0492
-11.823
-7.67923
3.9989
22.3838
44.258
65.1167
80.835
89.1406
90.2379
86.3609
80.5483
75.2716
71.548
68.8618
65.8003
60.9924
53.8715
44.9533
35.5946
27.4327
21.7904
19.2701
19.6344
21.9457
24.8797
27.1127
27.6897
26.2846
23.2696
19.5524
16.2181
14.1031
13.4846
14.0333
15.0584
15.9177
16.3707
16.6712
17.3411
18.752
20.7672
22.6753
23.489
22.4663
19.5683
15.5821
11.8105
9.46934
9.10105
10.3202
12.0397
13.0774
12.8375
11.7174
11.0142
12.3517
16.8842
24.655
34.4299
44.1181
51.6155
55.6947
56.5159
55.4879
54.5187
55.0112
57.1302
59.766
61.2715
60.6108
58.2698
56.3319
57.5423
63.7614
74.6394
87.3252
97.5348
101.555
98.1764
89.4914
80.0232
74.5412
75.6454
82.3736
90.5718
94.848
91.1008
78.3482
58.9996
37.5655
18.5945
4.93411
-2.90282
-6.17981
-6.74494
-5.99702
-4.53507
-2.48024
-0.0195818
2.34975
4.08926
5.16582
6.37357
9.03301
14.087
21.0791
27.7056
30.4238
26.0649
13.8166
-3.37395
-18.7881
-23.5899
-9.71311
27.0157
84.6929
154.991
224.915
280.196
309.24
306.38
273.341
218.487
154.14
92.9212
44.3674
12.8865
-2.40726
-6.17835
-4.44463
-2.24741
-2.23518
-4.49604
-7.42863
-9.06898
-8.22304
-4.96934
-0.453746
3.78127
6.53644
7.41582
6.84796
5.73336
4.9407
4.90906
5.52889
6.32195
6.79454
6.76255
6.47415
6.46857
7.25137
8.96528
11.2389
13.3012
14.3078
13.7137
11.5078
8.20414
4.61563
1.54196
-0.475825
-1.24497
-0.866061
0.384903
2.15485
4.06447
5.74289
6.89206
7.38596
7.35034
7.14452
7.20914
7.83112
8.95127
10.1409
10.7895
10.4195
8.95625
6.79173
4.59309
2.95653
2.1056
1.81315
1.59498
1.05553
0.164907
-0.71856
-1.10782
-0.766678
0.0515431
0.699562
0.54994
-0.517236
-1.89179
-2.49081
-1.41744
1.34827
4.68706
6.76661
6.01092
2.09525
-3.64469
-8.71828
-10.7086
-8.57551
-3.28359
2.65073
6.48952
6.76066
4.06911
0.769314
-0.324937
2.51895
8.9976
16.8935
23.1669
25.4096
22.9187
16.9104
9.87137
4.449
2.41609
4.10546
8.42871
13.3559
16.6346
16.5413
12.5047
5.44432
-2.32982
-7.75186
-8.0782
-2.06712
9.26045
22.7418
34.1958
40.17
39.5334
34.0969
27.8412
25.0155
27.9858
35.9206
45.0442
50.4219
48.4529
38.8477
25.0918
13.1254
8.84146
15.5618
32.6309
55.7011
78.4867
95.142
102.248
99.6908
90.2677
78.374
68.3719
63.2144
63.6814
68.3463
74.2149
77.8549
76.7175
70.2516
60.3716
50.9852
46.6144
50.565
63.3943
82.402
102.469
117.962
124.903
122.442
112.988
100.985
90.9318
85.5546
84.9199
86.765
87.7717
85.1261
77.6762
66.2646
53.2173
41.3051
32.6508
28.0007
26.5894
26.587
25.9132
23.0858
17.7752
10.8592
3.97656
-1.21094
-3.71309
-3.55969
-1.67229
0.635324
2.25216
2.66834
2.02408
0.862051
-0.218126
-0.797104
-0.677583
0.206044
1.87029
4.26085
7.149
10.0647
12.3798
13.5476
13.3714
12.1245
10.4166
8.86504
7.76844
6.99697
6.18124
5.08301
3.89325
3.22767
3.77527
5.79226
8.77162
11.5553
12.9118
12.3073
10.434
9.13514
10.6617
16.5708
26.8082
39.4776
51.4828
59.7832
62.6746
60.4666
55.2183
49.6721
45.932
44.5579
44.5101
43.9169
41.1984
35.92
28.9408
21.858
16.1534
12.5842
11.1463
11.5168
13.5358
17.2588
22.4406
27.8009
30.7431
28.0862
17.8165
1.14902
-16.2731
-25.0688
-14.958
21.0754
82.9765
161.985
242.259
305.485
336.869
330.15
289.589
228.123
162.437
107.059
69.8754
50.7761
43.6485
40.4711
35.4169
27.0972
18.1525
12.7766
13.7257
20.4647
29.3506
35.5975
35.8378
29.8642
20.6644
12.8129
10.1289
13.8165
21.9705
30.5919
35.5204
34.3217
27.2822
17.1581
7.89995
2.98409
4.07108
10.4966
19.7167
28.4392
33.9253
34.9192
31.8588
26.3553
20.2572
14.7918
10.2036
6.01904
1.716
-2.65453
-6.29626
-8.05587
-7.11237
-3.49883
1.91911
8.03162
14.2734
21.0749
29.6188
40.9808
55.1602
70.6398
84.8431
95.3306
101.095
103.194
104.278
107.18
113.278
121.509
128.621
130.584
124.523
110.198
90.3242
69.5436
52.5429
42.1858
38.5037
38.9544
39.7602
37.656
31.2388
21.3587
10.475
1.38335
-4.03421
-5.47366
-4.06887
-1.63807
0.229154
0.786801
0.216074
-0.750336
-1.37519
-1.31859
-0.721476
-0.00422807
0.440291
0.46301
0.184034
-0.141895
-0.304554
-0.247681
-0.061457
0.109587
0.168242
0.112206
0.0109142
-0.0579035
-0.0624141
-0.0273349
-0.00117853
-0.00977497
-0.0324395
-0.0185891
0.0678622
0.210688
0.341968
0.38637
0.320675
0.203747
0.148134
0.245662
0.49762
0.804371
1.02923
1.09097
1.00385
0.809997
0.429858
-0.458865
-2.38331
-5.82698
-10.8624
-16.8736
-22.578
-26.4136
-27.149
-24.4166
-18.8895
-12.0046
-5.38709
-0.28463
2.71773
3.63679
2.84379
0.877154
-1.55059
-3.44169
-3.54357
-0.712056
5.45605
14.069
22.9039
29.1091
30.4334
26.3834
18.6414
10.4169
4.98779
4.16915
7.53104
12.7853
17.111
18.6601
17.4072
14.9108
13.2068
13.5441
15.7179
18.3484
19.8562
19.4765
17.6795
15.7742
14.9983
15.7006
17.1247
17.8993
16.8956
13.9116
9.79572
5.99027
3.81995
3.95269
6.28555
10.209
14.987
19.9899
24.6975
28.5924
31.1366
31.919
30.8835
28.4365
25.2991
22.1543
19.3155
16.6568
13.8792
10.943
8.35211
7.04767
7.91918
11.2164
16.2485
21.6077
25.8385
28.1789
28.933
29.2374
30.3434
32.8351
36.2503
39.3377
40.8101
40.1518
38.005
35.8919
35.4114
37.3441
41.1606
45.2093
47.5035
46.7073
42.8231
37.2298
32.0539
29.1807
29.3926
32.0486
35.454
37.7231
37.6943
35.4326
32.0704
29.0884
27.4457
27.0631
26.975
26.085
24.09
21.9953
21.8318
25.6335
34.1842
46.2458
58.785
68.203
72.0194
70.1679
65.2118
61.3092
62.3833
70.3487
84.212
100.437
114.368
122.05
121.672
114.087
102.322
90.3718
81.8008
78.6419
80.874
86.5261
92.2719
94.3156
89.388
75.7218
53.8957
27.3923
2.64873
-11.6621
-6.28325
26.1437
88.2758
175.836
276.982
373.99
447.256
480.626
466.339
407.71
318.349
218.007
126.467
57.7801
16.9778
0.325403
-1.34887
2.02601
3.66472
1.53033
-2.60895
-5.67802
-5.756
-3.20018
-0.0714409
1.48857
0.758867
-1.13519
-2.06901
-0.426248
3.72707
8.55035
11.4804
10.7927
6.74209
1.60859
-1.38857
0.282114
7.16426
17.4987
28.0111
35.3585
37.5073
34.4193
27.8162
20.2461
13.955
10.0764
8.42788
7.8943
7.13549
5.26635
2.23229
-1.22852
-3.96228
-4.91858
-3.58159
-0.142066
4.64284
9.82316
14.6872
19.0508
23.2659
27.936
33.4633
39.6417
45.5095
49.5661
50.2966
46.7934
39.2033
28.7874
17.5503
7.58748
0.428114
-3.35126
-4.10569
-2.75457
-0.289563
2.58566
5.52973
8.37769
10.8725
12.5294
12.7508
11.1426
7.83595
3.60056
-0.363349
-2.88257
-3.29889
-1.73741
0.987388
3.78158
5.78545
6.72592
6.93317
7.0318
7.49532
8.32707
9.0572
9.06226
8.02026
6.22156
4.52189
3.92229
4.98421
7.40925
10.052
11.4128
10.3894
6.90332
2.05951
-2.27405
-4.27616
-2.97987
1.31114
7.17915
12.7154
16.29
17.1202
15.4329
12.2369
8.87981
6.59741
6.18751
7.83961
11.104
14.9984
18.2767
19.8519
19.2676
17.0052
14.4073
13.1397
14.3713
18.0639
22.7936
26.2965
26.5457
22.8328
16.258
9.30254
4.64287
3.8058
6.39054
10.3083
12.9427
12.6151
9.54774
5.77547
4.0265
6.17092
12.0849
19.5651
25.3629
26.8037
23.1449
15.9707
8.43321
3.74413
3.68286
7.84184
13.927
18.9036
20.3963
17.6889
11.9131
5.42099
0.68833
-0.738705
1.18521
5.11622
9.02324
11.1562
10.8623
8.90329
7.13245
7.66304
11.8827
19.7521
29.7118
39.2539
45.909
48.2135
46.2359
41.4654
36.1644
32.5089
31.8863
34.5773
39.8364
46.2221
51.9997
55.517
55.5477
51.6178
44.2653
35.0945
26.4755
20.8628
19.9199
23.8103
31.0232
38.903
44.7105
46.7563
45.0665
41.2443
37.5866
35.8982
36.6112
38.6604
40.1625
39.5108
36.2746
31.4
26.6131
23.3779
22.0253
21.5674
20.3106
16.9092
11.2369
4.56617
-1.03475
-3.7093
-2.617
1.90636
8.82619
17.0829
25.9046
34.5072
41.4692
44.4656
40.9766
29.9967
13.9836
-0.212446
-2.49098
17.1605
64.2278
136.082
221.135
301.56
358.823
379.873
361.483
310.961
243.089
174.741
119.512
84.4435
69.7179
70.797
81.4927
96.3966
111.821
125.408
135.275
139.6
137.017
127.511
113.036
97.2796
84.4668
77.7513
77.9862
83.4788
90.7947
96.1511
96.7132
91.276
80.2234
65.0273
47.6767
30.2832
14.8627
3.13075
-3.80786
-5.81159
-3.87695
0.0778957
3.8397
5.70128
5.06003
2.51389
-0.585067
-2.87096
-3.60643
-2.91523
-1.54179
-0.336332
0.211208
0.137161
-0.172423
-0.333425
-0.235926
-0.0606678
-0.0476253
-0.196407
-0.130806
0.739996
2.82508
5.95367
9.2495
11.424
11.3967
8.93356
4.93047
1.11662
-0.744689
0.220019
3.44832
7.12877
9.10831
8.10206
4.57091
0.746638
-0.300224
3.85629
13.7009
27.3586
41.323
52.008
57.355
57.68
55.3254
53.3093
53.6828
56.4553
59.6333
60.3226
56.29
47.1684
34.7082
22.0005
12.1231
6.90481
6.37881
9.08815
12.9714
16.319
18.3452
19.1906
19.486
19.7935
20.2345
20.4581
19.9047
18.1847
15.366
12.0311
9.08409
7.39547
7.44794
9.14604
11.8871
14.8702
17.4948
19.6398
21.6523
24.0298
26.9529
29.9442
31.8848
31.4431
27.7348
20.8778
12.1351
3.53205
-2.89591
-5.87956
-5.36019
-2.41357
1.28208
4.16609
5.37686
4.96464
3.69323
2.56838
2.32791
3.11578
4.46266
5.55734
5.67086
4.53094
2.4648
0.23193
-1.37987
-1.988
-1.83012
-1.60452
-1.97818
-3.01019
-3.82864
-2.79783
1.84765
11.2076
25.1946
42.5969
61.7062
81.1383
100.331
119.377
138.278
156.119
170.814
179.774
181.299
175.934
166.907
159.141
157.129
162.669
173.697
184.99
190.554
186.556
173.297
155.132
138.327
127.938
125.351
127.794
130.037
127.327
117.946
104.003
90.0959
80.664
77.5525
79.1321
81.3978
80.327
74.103
63.948
53.1693
45.0756
41.0411
39.8503
38.6491
34.8655
27.9095
19.6331
13.2958
11.666
15.3757
22.4651
29.343
32.5897
30.6002
24.2258
16.1829
9.66844
6.96936
8.7225
14.0194
21.0729
27.9557
33.0562
35.2138
33.7418
28.5532
20.3979
10.9855
2.72228
-2.0168
-1.82586
3.06511
10.8212
18.8152
24.8618
28.2342
29.8965
31.7918
35.5501
41.3266
47.4524
51.1612
50.0757
43.6876
34.0102
24.9609
20.6744
23.5266
32.8662
45.1565
55.5563
60.2336
58.2872
52.2908
47.1219
47.5963
56.0483
71.06
87.987
101.039
105.896
101.575
90.6788
77.9391
67.8625
62.6496
61.3926
60.8586
57.37
48.7803
35.56
20.5089
7.32224
-1.20218
-4.39098
-3.76212
-1.96349
-1.21238
-2.12864
-3.63477
-3.98726
-2.31118
0.380736
1.52771
-1.16177
-7.23209
-11.7902
-5.94528
20.1951
72.8988
150.573
242.124
329.175
391.683
414.814
394.217
337.422
260.797
183.473
120.905
80.6818
61.9474
58.0486
60.665
63.3654
63.2411
60.4832
56.7771
53.7043
51.9446
51.3677
51.553
52.1889
53.0961
54.0094
54.4379
53.8118
51.8508
48.8894
45.9105
44.2366
45.0511
48.996
56.002
65.3432
75.805
85.8759
93.9649
98.6941
99.2604
95.7425
89.1649
81.2054
73.6246
67.6739
63.7743
61.5986
60.4485
59.6426
58.669
57.0575
54.1652
49.1558
41.323
30.6391
18.1933
6.16799
-2.77173
-6.47317
-4.22447
2.84317
12.109
20.4496
25.4463
26.3031
24.0967
21.2592
20.5034
23.6149
30.5837
39.4284
46.8044
49.195
44.2414
31.695
13.6019
-6.36971
-24.1917
-36.8118
-43.0186
-43.5108
-40.2121
-35.2097
-29.8375
-24.3121
-18.0201
-10.2214
-0.743308
9.71461
19.8045
28.1271
33.8568
37.0622
38.5783
39.5373
40.8291
42.7686
45.1011
47.2857
48.8702
49.7624
50.3008
51.1421
53.0513
56.6777
62.3559
69.9542
78.8028
87.7711
95.5436
101.065
103.996
104.942
105.256
106.391
109.038
112.438
114.259
111.218
100.273
79.9406
51.1717
17.3881
-16.404
-45.1106
-65.0889
-75.1416
-76.5955
-72.4747
-66.1464
-60.0266
-54.8809
-49.9692
-43.8841
-35.615
-25.2871
-14.216
-4.28744
2.97181
7.12357
8.96696
10.0557
11.8726
15.1112
19.4251
23.7254
26.8127
27.9808
27.2865
25.3926
23.124
21.0053
19.0287
16.7526
13.6629
9.59607
4.99721
0.858395
-1.67118
-1.84694
0.20789
3.40719
6.10216
6.86008
5.27229
2.35755
0.272649
1.37782
7.06552
16.9383
28.7888
39.4373
46.0308
47.1601
43.2549
36.1237
27.9636
20.4211
14.1839
9.21263
5.3183
2.615
1.52317
2.35415
4.82619
7.92762
10.3111
11.0307
10.1703
8.9406
9.12752
12.1764
18.4247
26.9185
35.8999
43.6567
49.2277
52.5716
54.1698
54.3935
53.1114
49.8357
44.3217
37.1974
30.1217
25.2351
24.1187
26.8473
31.7609
36.2247
38.0734
36.9635
34.7834
34.7009
39.1699
47.9017
57.0277
60.246
51.793
30.0465
-0.0140063
-27.0172
-36.5401
-16.5871
36.9527
117.294
207.771
286.795
334.964
341.517
307.588
245.069
171.76
104.97
56.2133
28.8535
19.1458
19.5999
22.8379
24.272
22.8102
19.8465
17.4915
17.0827
18.5968
20.9874
23.0281
24.1122
24.612
25.681
28.6383
34.2278
42.0858
50.6862
57.8607
61.7497
61.7942
59.2637
56.945
57.9868
64.3583
75.6806
89.1068
100.458
106.155
105.02
98.9938
92.3391
89.6662
93.7503
104.234
117.859
130.076
137.179
137.883
133.599
127.414
122.42
120.352
121.2
123.819
126.994
130.174
133.407
136.575
138.59
137.267
130.157
115.974
95.7046
72.5831
50.7478
33.2414
20.5488
10.6437
0.634245
-10.9533
-22.725
-30.8617
-31.3324
-22.5474
-6.68623
11.3361
26.7865
38.089
47.8002
60.6895
79.9402
103.925
125.922
137.414
133.265
115.555
93.3585
78.0915
76.8606
87.7925
100.412
101.234
81.5359
42.7673
-3.67316
-42.2756
-61.4789
-59.2401
-42.9676
-24.1614
-11.333
-5.70383
-2.25314
4.85874
16.3368
25.4776
21.4104
-3.91147
-49.2685
-102.453
-144.721
-159.231
-138.961
-89.8663
-27.7663
29.1586
68.1982
86.4119
89.7717
88.3493
90.5677
99.5085
112.696
124.761
131.071
130.316
124.968
119.737
119.034
124.659
134.673
143.842
145.543
134.502
109.384
74.1278
37.2219
8.87064
-2.9688
4.04831
25.5932
52.642
75.6976
89.1857
93.7113
94.9234
99.5675
110.925
126.255
137.794
136.877
118.967
86.8009
49.8917
20.5621
8.54597
16.8723
40.9737
71.2224
97.4002
112.835
116.381
111.715
104.732
100.591
101.754
107.671
115.841
123.46
128.808
131.836
133.866
136.708
141.673
148.948
157.619
166.293
173.974
180.646
187.119
194.092
200.896
204.718
201.01
185.214
155.161
112.939
65.1028
20.8407
-11.287
-26.5747
-25.8511
-14.794
-1.21935
8.33127
11.0866
8.53688
4.8887
4.4526
9.37137
18.7789
29.6374
38.613
43.8865
45.9505
47.0801
49.885
55.7806
64.1607
72.6069
77.9276
77.4663
70.1064
56.6565
39.615
22.5168
9.08359
2.33406
3.77587
12.8587
26.938
41.9462
53.7142
59.5227
59.2074
55.2185
51.4894
51.5849
57.0348
66.7104
77.5594
86.2673
90.9032
91.6446
90.2537
88.7269
88.0131
87.5915
86.1068
82.561
77.2111
71.5404
67.3046
65.2897
64.6404
63.2817
59.2625
52.2355
44.1248
38.4393
38.4373
45.029
55.5508
64.2153
64.2963
51.2901
25.7599
-5.43876
-30.3305
-35.2932
-9.81429
49.1094
134.63
230.888
317.063
373.459
387.577
357.972
294.454
214.558
137.63
78.8055
45.103
34.8695
40.3649
51.9986
62.2336
67.6095
68.4359
66.8684
64.7272
62.2794
58.4558
52.0719
43.0945
33.0849
24.5433
19.5841
18.7682
20.7968
23.24
23.8771
21.8919
18.2851
15.3121
15.2771
19.3156
26.7619
35.3689
42.2442
45.0569
42.9967
37.1076
29.8827
24.2959
22.6474
25.6719
32.2607
39.9242
45.8214
47.9408
45.9311
41.2263
36.4186
34.1797
36.2271
42.7846
52.7169
64.1773
75.3856
85.1585
93.0194
98.9828
103.267
106.154
108.042
109.538
111.395
114.22
118.07
122.247
125.494
126.621
125.245
122.183
119.152
117.771
118.326
119.006
116.197
105.938
86.0098
57.6522
25.9556
-1.52219
-17.5074
-18.0045
-4.17658
17.8288
39.1416
51.6024
50.8985
38.0692
18.7951
0.870892
-8.97499
-7.56323
3.87717
20.6188
36.5208
46.3258
47.3109
39.8657
27.0629
13.5906
4.46778
3.8386
14.0005
34.7766
63.3735
94.8703
123.364
143.549
152.241
149.288
137.464
121.368
105.761
94.0336
87.3825
84.9294
84.5667
84.0461
81.8225
77.4014
71.2304
64.3461
57.9813
53.2144
50.6517
50.1519
50.6993
50.5988
48.0668
42.0679
33.0074
22.8477
14.4438
10.3121
11.4126
16.595
23.0559
27.6227
28.2239
24.7924
19.1559
14.016
11.5864
12.6007
16.1415
20.2764
23.0765
23.4671
21.537
18.2685
14.9348
12.5111
11.3482
11.1798
11.376
11.2955
10.5947
9.3941
8.24538
7.90391
8.9817
11.6311
15.4238
19.51
22.9913
25.3003
26.3602
26.4316
25.7654
24.3307
21.8522
18.1683
13.6646
9.41982
6.84837
6.95594
9.63594
13.4947
16.4251
16.6919
13.9307
9.44692
5.57073
4.38138
6.51471
10.7563
14.6843
16.0126
13.8672
9.25693
4.4727
1.77327
2.13104
4.75961
7.67132
8.90249
7.66479
4.75154
1.99406
1.1322
2.79378
6.17833
9.59123
11.4581
11.1834
9.35018
7.19245
5.72606
5.11803
4.69507
3.56366
1.41115
-1.06648
-2.43302
-1.35667
2.46982
7.91545
12.8129
15.0106
13.5132
9.06007
3.77969
0.0664768
-0.723993
0.972168
3.18718
3.60415
1.03129
-3.68848
-7.94431
-8.78821
-4.82517
2.52119
9.26185
10.7833
4.7123
-6.71045
-16.145
-13.1916
11.5937
62.2936
134.778
216.804
291.252
341.351
355.915
332.666
278.531
207.021
133.844
72.3788
30.4689
9.34051
4.64313
8.95946
14.7838
16.9664
13.915
7.32266
0.719991
-2.44545
-0.373596
6.49023
15.9522
25.2714
32.3839
36.5496
38.2216
38.3969
37.9564
37.4027
37.0398
37.3014
38.8306
42.1443
47.0765
52.4379
56.25
56.5511
52.3716
44.3095
34.335
24.8978
17.8214
13.5871
11.3665
9.71599
7.48304
4.39861
1.07127
-1.52436
-2.69495
-2.41788
-1.28893
-0.129788
0.463589
0.366254
-0.134091
-0.603558
-0.742365
-0.519723
-0.123609
0.199895
0.299661
0.182195
-0.0267887
-0.175558
-0.173284
-0.0305098
0.155361
0.255191
0.17895
-0.0667781
-0.3639
-0.529519
-0.415863
-0.0173369
0.485216
0.795612
0.677228
0.140194
-0.490546
-0.712961
-0.155094
1.11861
2.52159
3.20527
2.58097
0.813147
-1.065
-1.59931
0.213621
4.07625
8.09161
9.31791
5.02758
-5.90453
-22.2023
-40.4454
-56.3163
-66.2533
-68.7128
-64.4677
-55.897
-45.739
-36.0035
-27.5469
-20.356
-14.166
-8.90464
-4.67357
-1.37419
1.62766
5.41889
10.9685
18.3847
26.5061
33.1876
36.2338
34.52
28.6892
21.0156
14.4804
11.5254
13.1069
18.4781
25.7219
32.6795
37.7851
40.4614
41.0292
40.3423
39.4169
39.2075
40.4941
43.7524
48.9413
55.3006
61.3593
65.3128
65.7119
62.1717
55.703
48.407
42.6061
39.8181
40.1175
42.2489
44.448
45.5083
45.4692
45.505
47.0704
50.8323
56.0886
61.1146
64.3058
65.4375
66.1896
69.4316
77.4827
90.2429
104.319
113.858
112.906
98.2673
71.4183
38.4311
7.81199
-12.8093
-19.6101
-13.7936
-0.615514
13.1953
22.3219
24.7195
21.745
16.7584
13.1024
12.5354
14.801
18.3383
21.5458
23.8084
25.727
28.4944
32.8399
38.19
42.5636
43.33
38.5064
27.9742
13.9868
0.635703
-7.59274
-7.59851
0.988942
15.5415
31.4242
43.8644
49.8904
49.4659
45.3045
41.4657
41.4199
46.5169
55.5688
65.6807
73.82
78.2643
79.1785
78.0845
76.6062
75.2593
73.0063
67.8432
58.0963
43.6987
26.7181
10.797
-0.259408
-4.07022
-0.663428
7.6185
17.2398
25.0656
29.6485
31.5849
32.777
34.9963
38.5201
41.6326
41.4017
35.5194
24.4012
12.4687
7.75058
19.5946
55.1233
115.735
195.128
279.871
352.656
397.262
403.593
370.952
308.344
231.629
158.523
103.219
72.5282
64.8398
72.089
83.7632
91.2407
90.7205
83.7019
75.0904
70.0412
71.1335
77.1845
84.1154
87.2283
83.5893
73.2608
58.8485
43.7916
30.5013
19.4441
9.61634
-0.0444465
-9.35248
-16.6273
-19.7548
-17.9115
-12.799
-8.45169
-9.51313
-18.8306
-35.7123
-55.898
-73.3689
-83.0951
-83.2797
-75.9293
-65.4917
-56.3374
-50.4488
-46.5159
-40.8428
-29.5165
-10.6681
14.3165
41.1912
64.5886
80.2223
86.5302
85.0786
79.6664
74.6487
73.2785
76.7577
84.2779
93.8469
103.363
111.374
117.227
120.702
121.518
119.136
113.025
103.203
90.6239
77.0379
64.2945
53.4396
44.1739
35.0779
24.56
12.0186
-1.48135
-13.4788
-21.2578
-23.2568
-19.9577
-13.7385
-7.75547
-4.46085
-4.55284
-6.88337
-9.29858
-9.88116
-7.89448
-3.96719
0.467124
4.04492
6.11338
6.80737
6.62546
5.8785
4.42842
1.90471
-1.75867
-5.85856
-8.90451
-9.16008
-5.51124
1.79585
10.977
19.2528
23.9074
23.3931
17.9799
9.65965
1.3644
-4.1463
-5.24934
-1.90084
4.55797
12.0683
18.6602
23.061
24.9113
24.5968
22.8636
20.4407
17.8316
15.3167
13.0834
11.3481
10.3628
10.2912
11.0401
12.1808
13.0639
13.1285
12.282
11.1498
11.0161
13.3981
19.3743
28.9398
40.7004
52.1159
60.284
63.0026
59.6914
51.7538
42.1638
34.3794
30.9907
32.6664
37.8685
43.4974
46.2154
43.8829
36.4707
26.0416
15.8268
8.84486
6.71814
9.21702
14.6747
20.9696
26.5095
30.7146
33.8328
36.3292
38.3226
39.455
39.2507
37.6598
35.3412
33.4154
32.7997
33.5673
34.8086
35.1706
33.7933
31.0469
28.5407
28.3004
31.5472
37.8123
44.9717
50.2589
51.7209
49.2953
44.8879
41.3999
41.2499
45.2009
52.0899
59.5157
65.0152
67.0525
65.356
60.5903
53.7398
45.6736
37.1287
28.9849
22.4656
18.9536
19.4085
23.7094
30.3898
37.0639
41.4555
42.5553
41.2808
40.2062
42.3767
49.6982
61.6586
75.039
84.8542
86.2128
76.354
56.0047
29.453
3.24743
-16.0154
-23.9856
-20.0667
-7.56348
7.58875
19.0417
22.3746
16.6831
4.81755
-7.82816
-15.5157
-14.4902
-4.49569
11.1573
27.0228
37.8466
40.7721
36.4274
28.3906
21.29
18.4667
20.364
24.4617
26.7974
24.2866
16.6185
6.69805
-0.646321
-1.06131
7.05001
21.5387
37.3261
48.6162
51.406
45.0885
32.454
18.2217
6.92329
1.17494
1.04872
4.62888
9.26902
12.8423
14.4469
14.4241
13.9032
14.226
16.5061
21.3829
28.895
38.4019
48.5846
57.6301
63.6666
65.3707
62.5167
56.188
48.4938
41.8556
38.1417
38.0099
40.7255
44.517
47.3049
47.5153
44.6768
39.6083
34.1476
30.5092
30.4624
34.57
41.7384
49.2786
53.5712
51.2545
40.6648
23.0885
3.32817
-10.8182
-10.2896
12.5716
61.1209
132.251
215.912
296.846
358.323
386.878
376.477
330.557
261.04
184.534
117.085
69.4295
44.5188
38.0952
41.7918
47.1963
49.0564
46.4028
41.4833
37.4509
36.1988
37.4244
39.1697
39.2503
36.5906
31.7072
26.2039
21.7458
19.2147
18.5096
18.9679
19.9845
21.3463
23.0877
25.0715
26.7165
27.1787
25.9351
23.3715
20.9045
20.4276
23.3182
29.5665
37.5814
44.8633
49.2329
49.9632
48.1978
46.4222
47.2717
52.307
61.3778
72.8586
84.5711
94.8794
103.402
111.023
119.268
129.385
141.603
154.909
167.445
177.337
183.591
186.626
188.137
190.258
194.32
199.748
203.709
201.855
190.018
166.228
132.109
92.9112
55.9681
28.1271
13.2247
10.7347
16.2077
23.3046
26.4903
23.1737
14.3799
3.76892
-4.40908
-7.38186
-4.98393
0.583206
6.09597
8.98994
8.52324
5.9078
3.45431
3.25938
6.13477
11.2812
16.7803
20.5618
21.3126
18.9065
14.2443
8.71167
3.60396
-0.212249
-2.34781
-2.78295
-1.77297
0.172445
2.32355
3.91203
4.48589
4.27615
4.30019
6.0066
10.5285
17.9031
26.7323
34.5856
39.0501
38.9304
34.9488
29.5096
25.5825
25.2502
28.6838
34.0996
38.7314
40.3006
38.1893
33.6925
29.2278
26.9601
27.6103
30.1031
32.2253
31.902
28.3555
22.4966
16.3477
11.8564
9.80064
9.42594
9.01365
7.03428
3.19271
-1.2633
-4.16742
-3.63994
0.820184
7.98666
15.5006
21.0668
23.5719
23.5071
22.4903
22.2066
23.4027
25.5155
27.1215
26.9121
24.6009
21.2243
18.6579
18.6164
21.6915
26.95
32.3108
35.5083
35.162
31.4348
25.9747
21.1802
19.1318
20.6675
25.009
30.099
33.5115
33.5466
30.033
24.4652
19.3817
17.2297
19.2225
24.7344
31.5576
36.9352
38.8917
37.2005
33.4861
30.39
30.223
33.8069
40.1153
46.8903
51.8733
53.9524
53.5869
52.2921
51.5228
51.6399
51.5962
49.5433
44.0133
34.9746
24.1256
14.2259
7.81695
6.03484
8.15699
12.104
15.5809
17.2063
17.023
16.1712
15.9871
17.0956
19.0216
20.5049
20.2829
17.8536
13.7781
9.38155
6.0658
4.64996
5.09911
6.7426
8.78902
10.7912
12.7812
15.0266
17.6079
20.1306
21.8047
21.8915
20.2806
17.8427
16.2907
17.523
22.7054
31.5188
41.9738
50.9623
55.3808
53.3854
45.2328
33.3154
21.3235
12.8499
10.004
12.6168
18.375
23.8286
25.8417
22.8685
15.515
6.17074
-2.10163
-6.90455
-7.47321
-4.86103
-1.30341
0.898123
0.424441
-2.55658
-6.59795
-9.68601
-10.0134
-6.40936
1.68539
14.4589
31.7717
52.7506
75.0968
94.6902
106.163
104.72
88.7266
61.9099
33.7903
17.5623
25.751
65.1689
133.296
217.838
299.967
360.2
384.679
369.452
321.195
254.265
185.466
128.637
91.0459
72.6338
67.929
69.4522
71.0491
69.8717
66.4822
63.4113
63.0983
66.2694
71.4634
75.7964
76.4541
72.0974
63.4709
52.9567
43.3614
36.5955
32.9146
31.0557
29.1158
25.6516
20.4143
14.391
9.22399
6.39578
6.62397
9.71207
14.8031
20.7799
26.5649
31.2479
34.1556
35.0133
34.2054
32.9276
32.9501
35.8702
42.0979
50.1283
56.6846
57.9358
51.3805
37.4752
20.0445
5.03178
-1.97438
1.73197
14.7177
32.1627
48.3049
59.3162
65.0561
68.7235
74.5741
84.9698
98.4422
109.933
113.188
104.06
82.9643
55.0968
28.2645
9.40051
1.55592
2.88263
8.05552
11.3082
9.45389
3.34639
-2.88098
-4.27091
2.18232
15.8966
32.9829
48.1767
57.3173
59.0649
55.0442
48.4905
42.2659
37.387
32.8476
26.7453
17.9765
7.44264
-1.99965
-6.89167
-5.10864
2.71898
13.168
21.5087
24.0136
19.894
11.8176
4.68082
3.23457
9.77656
23.0917
39.1487
53.1241
61.6441
64.0866
62.3763
59.5712
58.1719
59.1168
61.8984
65.4877
69.2933
73.4664
78.4133
83.9957
89.1426
92.3028
92.5275
90.4459
88.3577
89.1978
94.879
105.01
116.854
126.669
131.742
131.911
129.659
128.665
131.6
138.452
146.325
150.851
148.408
137.918
121.283
102.313
84.8246
70.9964
60.8075
52.7107
44.9968
36.9919
29.4349
23.9239
21.8557
23.5077
27.7476
32.4554
35.3681
34.9022
30.6212
23.2527
14.3704
5.9282
-0.21637
-2.72951
-1.14452
3.95134
10.9933
17.8435
22.4543
23.5661
21.1416
16.3237
10.9151
6.6119
4.3416
3.99947
4.67023
5.19072
4.76738
3.37392
1.78722
1.28825
3.17482
8.27023
16.5822
27.2092
38.5288
48.6358
55.9213
59.6057
60.0159
58.4579
56.6885
56.1827
57.509
60.1072
62.5783
63.3575
61.4511
56.8983
50.7702
44.7496
40.5239
39.2643
41.3663
46.4606
53.5862
61.4037
68.3985
73.1022
74.3697
71.6817
65.3523
56.4984
46.7093
37.5123
29.8624
23.9004
19.0958
14.6887
10.1845
5.63601
1.57639
-1.32799
-2.68607
-2.61517
-1.68289
-0.61705
0.0337129
0.101129
-0.225579
-0.596156
-0.732289
-0.565013
-0.22304
0.0877157
0.221104
0.162837
0.0109257
-0.104973
-0.107165
-0.00875144
0.106754
0.145755
0.0676633
-0.0846478
-0.205046
-0.187665
-0.00172949
0.267392
0.446561
0.373288
0.0170302
-0.45571
-0.737931
-0.559514
0.104062
0.933785
1.38716
1.01862
-0.168401
-1.58104
-2.27343
-1.50728
0.657668
3.13991
4.23269
2.52587
-2.10944
-8.08153
-12.5775
-12.8895
-7.93148
0.904488
10.1374
15.7616
15.235
8.83074
-0.423176
-8.24236
-11.249
-8.63578
-2.43124
3.75823
6.80592
5.76524
2.27914
-0.494085
0.196763
5.01008
11.9873
17.464
17.9284
11.8727
0.724736
-11.5678
-20.0913
-20.9591
-12.8989
2.19436
19.9449
35.1473
43.7573
44.457
39.1593
32.1881
28.3927
30.9353
39.7156
51.2149
59.9563
61.0314
52.5715
36.9738
20.2101
9.43656
9.96266
22.9831
45.1351
70.0674
91.2313
104.539
109.655
109.424
107.907
108.136
110.754
114.126
115.65
113.399
107.146
98.2824
88.8482
80.3878
73.3476
67.2974
61.6884
56.5315
52.5004
50.4143
50.5152
52.0982
53.7967
54.3464
53.3096
51.263
49.3316
48.4043
48.5765
49.1828
49.3427
48.5765
47.0159
45.0697
42.8481
39.8648
35.3455
28.9937
21.6491
15.2507
11.9456
12.7984
16.9285
21.7354
24.2287
22.7486
18.0335
12.9125
10.7076
13.2369
19.6062
26.5557
30.2236
28.3467
21.6409
13.5609
8.56088
9.81301
17.6166
29.3067
40.6211
47.7156
48.7514
44.3221
36.691
28.4395
21.3426
16.0118
12.3107
10.0923
9.69034
11.843
17.1397
25.394
35.3738
45.0836
52.4592
56.1096
55.7481
52.1495
46.7308
41.0099
36.1966
33.0312
31.8291
32.5954
35.0926
38.8277
43.015
46.604
48.4278
47.4649
43.1449
35.6029
25.7988
15.4384
6.67831
1.63625
1.79837
7.47876
17.5323
29.4938
40.1974
46.7374
47.4495
42.5104
33.8557
24.3788
16.7063
12.0753
9.8382
7.86587
3.69665
-4.09217
-14.9552
-26.3721
-34.8135
-37.2584
-32.5695
-22.0914
-9.19699
2.00194
8.19724
8.01044
2.25769
-6.68322
-16.0516
-23.8773
-29.6576
-34.3032
-39.4484
-46.4671
-55.6284
-65.7352
-74.3922
-78.8069
-76.8416
-67.9453
-53.623
-37.2431
-23.1822
-15.5266
-16.7138
-26.5641
-42.0759
-58.1533
-69.1279
-70.6307
-61.1743
-42.8224
-20.5957
-0.731163
11.6105
14.296
9.01023
0.508519
-5.39871
-4.28693
5.06389
20.2519
36.3822
48.1924
52.2003
47.9486
37.8952
26.1393
16.6701
11.9373
12.2766
16.252
21.5655
26.0235
28.171
27.4782
24.2174
19.2537
13.8894
9.74256
8.52864
11.65
19.6511
31.7726
45.903
59.1128
68.6832
73.2495
73.5237
72.1695
72.7515
78.1384
89.0619
103.537
117.49
126.372
127.027
118.96
104.39
87.1518
71.0148
58.3016
49.4304
43.4542
39.1131
35.6895
33.1896
31.8936
31.7607
32.2416
32.6902
33.0329
34.051
36.8222
41.483
46.1232
46.8194
39.315
21.8531
-2.26142
-24.044
-31.1012
-12.318
36.9088
111.344
196.315
272.06
320.388
330.952
304.517
251.986
189.804
133.835
94.3089
73.6686
67.7281
69.0881
70.9645
69.7347
65.3907
60.1879
56.5573
55.4768
56.0316
56.1479
53.8795
48.4456
40.4939
31.5749
23.2604
16.4691
11.3511
7.68444
5.41524
4.9133
6.74322
11.1014
17.3176
23.8054
28.5829
30.133
28.1486
23.7498
19.0302
16.1426
16.3608
19.5553
24.3
28.5267
30.4133
29.1236
25.1248
20.0026
15.8958
14.7944
17.9627
25.6752
37.3154
51.744
67.7434
84.3357
100.858
116.818
131.692
144.826
155.566
163.522
168.802
172.007
173.927
175.076
175.335
173.957
169.983
162.89
153.106
142.07
131.761
123.873
119.064
116.653
114.926
111.917
106.28
97.854
87.692
77.5928
69.3912
64.3282
62.7221
63.9906
66.9203
70.0323
71.9249
71.5451
68.3801
62.5527
54.7817
46.1763
37.8908
30.7549
25.0359
20.458
16.482
12.7147
9.23475
6.65545
5.87796
7.6495
12.1509
18.8322
26.5961
34.256
41.0453
46.9136
52.4279
58.2904
64.6975
70.8936
75.2294
75.8079
71.4784
62.6829
51.6415
41.6381
35.6342
34.8585
38.1269
42.3406
44.0049
41.0298
33.8644
25.328
19.195
18.2789
23.0449
31.4868
40.2831
46.5378
49.107
48.8074
47.4858
46.5997
46.2081
44.9741
41.139
33.846
24.0033
14.1764
7.56504
6.61284
11.9464
22.1101
34.1363
44.6233
50.859
51.6138
47.4198
40.3235
33.2006
28.8026
28.795
33.1271
40.0453
46.8451
51.1086
51.8645
50.0567
48.0181
48.1822
51.7274
57.9311
64.6241
69.4857
71.4025
71.0607
70.4073
71.3178
74.3035
78.0672
80.1766
78.4309
72.075
62.1446
50.8039
40.1679
31.3914
24.5563
19.3095
15.6778
14.3866
16.389
21.9113
29.7162
37.2103
41.4911
40.807
35.579
28.3401
22.5655
21.0108
24.4609
31.5405
39.6234
46.2689
50.3766
52.4882
54.2004
57.1442
62.1455
68.959
76.5584
83.6463
89.0125
91.5976
90.4077
84.5544
73.5782
57.9469
39.408
20.8839
5.82731
-2.74258
-3.12554
4.60004
18.6654
36.1294
53.5944
67.933
76.9393
79.8593
77.6894
73.042
69.4137
69.9207
75.9089
86.0802
96.6911
102.934
100.998
89.8649
71.9286
52.0568
35.4911
25.5993
22.5791
23.7208
25.0246
23.2807
17.5248
9.17927
0.933496
-4.90792
-7.64399
-8.31338
-8.76651
-10.3241
-12.9074
-15.2251
-15.9392
-15.0735
-14.6746
-18.0583
-27.7529
-43.0884
-58.8124
-65.8406
-54.3212
-18.0099
41.9047
115.43
185.875
234.973
249.152
224.427
167.832
94.7684
23.3465
-31.8868
-64.2714
-75.8119
-74.4645
-69.5251
-67.399
-69.594
-73.4972
-75.0739
-71.7821
-64.1243
-55.1889
-48.7142
-46.9684
-49.7015
-54.6778
-59.3259
-62.4096
-64.6928
-68.2316
-74.787
-84.3668
-94.8128
-102.711
-105.119
-101.145
-92.4741
-82.5774
-75.0042
-71.6757
-72.0352
-73.4419
-72.5479
-66.931
-56.1945
-42.0652
-27.534
-15.5172
-7.67994
-3.9146
-2.62944
-1.63915
0.778456
5.12001
10.4918
15.0866
17.0892
15.6257
11.3531
6.42168
3.79624
6.19791
15.1033
30.2231
49.6667
70.6794
90.5714
107.398
120.121
128.312
131.708
129.993
122.998
111.149
95.8241
79.2524
63.8959
51.5867
42.893
37.0849
32.725
28.5432
24.0923
19.8345
16.6734
15.2788
15.6453
17.1309
18.8859
20.3354
21.3843
22.2444
23.0689
23.7038
23.7591
22.9393
21.3614
19.5896
18.3198
17.9263
18.2081
18.5597
18.4932
18.161
18.4787
20.6718
25.4535
32.3259
39.4989
44.5908
45.8142
43.0108
37.9219
33.4639
32.3301
35.6363
42.3388
49.748
54.8625
55.7976
52.5447
46.6904
40.3358
34.9035
30.5501
26.4937
21.9741
17.1601
13.3621
12.3698
15.3247
21.8644
30.1343
37.7169
42.9396
45.761
47.6766
50.6911
55.9768
63.0331
69.847
73.9447
73.6996
69.1457
61.8827
54.2127
48.0636
44.2926
42.6465
42.2332
42.107
41.6268
40.5038
38.6966
36.3578
33.8825
31.9225
31.1891
32.0258
33.981
35.7199
35.4797
31.9304
24.9923
16.1038
7.70434
2.14909
0.623981
2.65141
6.44806
9.91366
11.6871
11.7037
11.0111
11.0342
12.7684
16.3522
21.1913
26.4537
31.5622
36.3697
40.9533
45.2297
48.7072
50.5853
50.1767
47.4035
43.0548
38.6181
35.7316
35.5151
38.1027
42.5956
47.4437
51.069
52.4573
51.4938
48.9565
46.2199
44.7988
45.8673
49.8545
56.1995
63.3409
69.0096
70.8312
67.1165
57.5814
43.6737
28.2776
14.8096
6.0201
3.00299
4.8684
9.2483
13.4014
15.3846
14.7287
12.3298
9.69184
8.00246
7.58076
7.98283
8.62764
9.47739
11.2714
15.1
21.544
29.9217
38.1811
43.6244
44.1598
39.4262
31.1484
22.4647
16.5272
15.0807
17.7638
22.4966
26.7366
28.9135
29.2521
29.5249
31.8671
37.3099
44.8665
51.7298
54.5556
51.2149
42.1194
30.4002
20.7774
17.6022
22.9734
35.8029
52.2666
67.4273
77.2892
80.3671
78.1019
73.9947
71.8965
74.2447
81.0233
89.8737
97.2649
100.161
97.4117
90.211
81.4132
74.0132
69.5382
67.1753
64.1438
57.2158
44.6676
27.6468
10.1473
-2.54389
-6.25072
0.0373915
13.565
29.0566
41.213
47.1468
47.4282
45.1601
43.6267
43.9283
44.1075
40.4674
30.5144
15.9093
3.61613
4.2429
27.9827
79.8454
156.352
245.294
328.838
388.857
412.465
395.803
344.84
273.144
197.556
133.272
89.8946
69.5542
67.5265
74.948
82.5686
84.1319
78.1446
67.4616
57.0563
51.1407
51.0549
54.8945
58.9066
59.7521
56.3176
50.0917
43.9881
40.4014
39.6837
39.9273
38.1379
32.0645
21.6089
9.02393
-2.17053
-8.9126
-10.0185
-6.58549
-1.25908
3.15849
4.99483
4.26432
2.30767
0.807178
0.753058
1.90826
3.02675
2.68373
0.264234
-3.43127
-6.33048
-5.9852
-0.83415
8.78057
20.3959
30.215
34.6211
31.7545
22.4109
9.81072
-1.68375
-8.3193
-8.37348
-2.62986
6.22816
14.9208
20.9003
23.1115
21.9584
18.6847
14.6297
10.7734
7.70985
5.87696
5.7178
7.54432
11.1327
15.3246
17.9764
16.4375
8.44405
-6.94336
-28.8022
-54.4925
-80.4641
-103.41
-121.308
-133.944
-142.758
-150.087
-158.157
-168.209
-180.099
-192.53
-203.776
-212.558
-218.628
-222.698
-225.692
-227.67
-227.078
-220.908
-205.95
-180.641
-146.55
-108.478
-72.8129
-44.7234
-25.6032
-12.2595
1.44509
21.1268
48.3488
79.0047
104.692
116.55
109.642
85.6031
52.1465
19.727
-2.8909
-11.9189
-9.21507
-0.348216
8.60995
13.7948
14.5625
12.728
10.8822
10.9053
13.3577
17.7308
23.0573
28.3747
32.8749
35.9195
37.1751
36.9099
36.2118
36.8122
40.4072
47.7406
57.9542
68.6418
76.6828
79.4946
76.1068
67.5598
56.4881
46.1516
39.3913
37.9313
42.1946
51.5252
64.566
79.5757
94.6137
107.657
116.77
120.387
117.667
108.807
95.161
79.0791
63.4476
51.0159
43.6683
41.852
44.3713
48.6851
51.6879
50.765
44.7517
34.4025
22.1288
11.06
3.79221
1.3641
2.92243
6.23507
8.80774
9.0665
7.03271
4.16814
2.48132
3.35627
6.70443
10.8826
13.443
12.3733
7.23733
-0.342354
-7.12881
-9.49813
-4.95142
6.72699
23.1693
40.137
52.9821
58.2861
55.034
44.8826
31.4588
19.0161
11.0067
9.10361
12.9629
20.6784
29.6216
37.2867
41.8792
42.5882
39.6382
34.2394
28.4602
24.9388
26.3386
34.5779
50.0627
71.2722
94.9894
117.207
134.402
144.646
148.066
146.474
142.376
137.911
134.21
131.429
129.274
127.558
126.368
125.731
125.035
122.695
116.451
104.283
85.5307
61.6043
35.8315
12.4291
-4.9428
-14.3697
-16.0809
-11.9507
-4.45652
4.3224
13.1814
21.6218
29.3047
35.5855
39.4853
40.1349
37.4022
32.2745
26.7024
22.924
22.6001
26.2023
32.954
41.3145
49.6969
57.016
62.7993
66.8891
69.0199
68.6145
64.9772
57.7782
47.5094
35.5858
23.972
14.5083
8.29442
5.45887
5.40416
7.33261
10.6956
15.2753
20.856
26.7229
31.368
32.7029
28.8259
19.09
5.03487
-9.26254
-17.6876
-13.4395
9.04458
52.0848
113.278
185.101
255.951
312.573
343.367
341.628
307.642
248.82
177.676
108.244
52.1624
15.7662
-0.841521
-2.61043
3.0791
9.32195
11.7799
9.36965
3.62989
-2.64767
-6.80676
-7.22982
-3.61759
3.20134
11.6789
19.9915
26.4521
29.8746
29.8446
26.8052
21.8834
16.4895
11.8445
8.6407
6.96817
6.48436
6.67505
7.0425
7.16185
6.68255
5.40336
3.46764
1.56951
0.960955
3.10768
9.05001
18.7584
30.8639
43.0044
52.7073
58.4181
60.1611
59.4836
58.7027
59.8403
63.7914
70.1337
77.6241
85.0543
91.9568
98.7702
106.41
115.556
126.119
137.232
147.743
156.844
164.358
170.409
174.661
175.657
170.84
157.508
134.334
102.666
66.7827
32.7661
6.39443
-8.9763
-13.5195
-10.5134
-4.65246
0.0166915
1.52811
0.217745
-2.16136
-3.77704
-3.73718
-2.33491
-0.574379
0.585086
0.768279
0.247011
-0.393936
-0.689527
-0.537047
-0.145563
0.199998
0.355548
0.368944
0.366481
0.398088
0.380125
0.183507
-0.209392
-0.61997
-0.756513
-0.433705
0.22383
0.768465
0.672111
-0.293563
-1.7924
-3.00536
-3.09187
-1.79653
0.194997
1.46571
0.641439
-2.65055
-7.21329
-10.528
-9.79901
-3.28953
8.77449
24.242
39.9852
53.1978
62.3071
67.0621
67.9411
65.4815
60.1364
52.7902
45.4415
41.2575
43.512
53.696
69.8546
86.3803
95.8537
92.3498
74.6171
47.3407
19.5601
0.802916
-3.1991
6.98371
25.0701
42.4387
52.4762
53.6023
49.4424
46.2129
48.8982
58.3865
71.0942
81.1485
83.7669
77.8806
66.5823
55.2816
48.7411
48.7088
53.3944
58.8964
61.5721
59.9053
54.8646
48.7443
43.395
39.039
34.3964
27.9517
19.4568
10.6356
4.59242
4.25274
10.7714
22.8449
37.3026
50.5889
60.2686
65.7591
68.0278
68.6223
68.726
68.779
68.728
68.5189
68.3311
68.3161
68.0531
66.2135
60.8559
50.3715
34.647
15.8053
-1.95513
-13.459
-14.1854
-1.80958
22.8753
55.9083
90.9425
120.648
138.454
140.303
125.995
99.6474
68.8935
42.7878
28.9365
30.8298
46.4719
69.0023
89.205
98.9731
94.337
76.8318
52.7016
30.3591
17.2179
17.1801
29.6669
50.3687
73.1981
92.5525
105.026
110.065
109.527
106.511
103.991
103.76
106.003
109.541
112.561
113.483
111.633
107.457
102.244
97.4959
94.2668
92.7537
92.3261
91.9512
90.7786
88.5711
85.7457
83.0056
80.7697
78.7343
75.8461
70.7475
62.4883
51.1279
37.886
24.7223
13.5376
5.40317
0.233899
-2.9134
-5.07918
-6.62152
-6.90805
-4.73591
0.678116
8.67909
16.8025
21.4945
19.8399
11.6178
0.657633
-5.42028
2.62149
32.118
84.9503
155.503
231.21
295.781
334.069
336.824
303.57
242.597
168.158
96.0461
39.1642
4.55068
-7.43337
-1.88022
13.1511
29.3999
40.6284
43.8522
39.4865
30.5691
21.3758
15.8213
16.0914
21.9179
30.7498
38.7876
42.5114
40.1067
32.1956
21.554
11.9295
6.4749
6.48762
11.0034
17.3999
22.6988
24.9399
23.9816
21.3734
19.4028
19.8258
22.9364
27.4485
31.2343
32.5089
30.8167
27.2833
24.0019
22.9037
24.7447
28.7717
33.2389
36.464
37.8152
38.0761
39.0101
42.3996
49.1148
58.7088
69.709
80.3828
89.5351
96.9432
103.283
109.672
117.082
125.867
135.502
144.569
150.987
152.495
147.326
134.905
116.258
93.8512
70.7886
49.6814
31.7207
16.4855
2.63078
-10.9133
-23.9486
-34.8684
-41.5199
-42.5928
-38.6768
-32.279
-26.692
-24.3152
-25.4036
-28.0049
-29.1589
-26.6774
-20.4622
-12.5777
-6.0249
-2.93276
-3.23195
-4.60247
-3.7488
1.70953
11.7992
24.0205
34.5468
40.1471
39.798
35.1402
29.5734
26.5083
27.7112
32.5837
38.6838
43.1397
44.1746
41.9647
38.4578
36.3308
37.6676
43.0021
51.1085
59.5231
65.465
66.7393
62.3316
52.605
39.163
24.4742
11.3222
2.13732
-1.67306
-0.185376
5.01577
11.3552
16.1911
17.7817
15.8695
11.6222
6.9899
3.82685
3.21589
5.2721
9.40377
14.7644
20.5899
26.2809
31.3236
35.2603
37.8401
39.2678
40.3051
42.0113
45.1501
49.5714
53.994
56.4435
55.2113
49.8474
41.6049
33.0249
26.8296
24.6938
26.5423
30.7197
34.8864
37.1149
36.6102
33.7598
29.6346
25.3369
21.5806
18.641
16.5394
15.215
14.5474
14.2952
14.1302
13.8612
13.7322
14.5224
17.2376
22.456
29.7026
37.3247
43.1115
45.4378
44.3156
41.6708
40.5442
43.5283
51.249
61.7612
71.2706
75.8788
73.4694
64.753
52.9274
42.146
35.598
34.1766
36.3543
39.2339
40.1501
37.9792
33.5373
28.9675
26.5192
27.3729
31.0633
35.71
38.8762
38.6269
34.3359
26.9478
18.6361
12.014
9.18185
10.9389
16.4375
23.4358
29.109
31.1594
28.7966
23.1459
16.8346
12.8598
13.2081
17.8716
24.7714
30.6805
32.7325
29.7822
22.9389
15.0085
9.1463
7.4238
10.0293
15.4494
21.4352
26.1567
28.9128
30.0857
30.5029
30.6968
30.5511
29.5201
27.2059
23.847
20.3408
17.7497
16.5963
16.422
15.9423
13.7749
9.34656
3.4383
-1.99984
-4.73622
-3.40495
1.71109
8.725
15.0454
18.6759
19.2008
17.8722
16.6916
16.9679
18.2089
18.1239
13.9784
4.77726
-6.83355
-14.1257
-7.93889
19.9089
72.7111
146.155
228.175
301.788
350.068
361.527
333.85
274.6
198.623
123.17
62.6044
24.5935
9.00596
9.57666
17.33
24.2046
25.4929
20.4431
11.2629
1.36969
-6.18607
-9.58546
-8.38504
-3.27795
4.2004
11.9499
17.722
19.8065
17.8404
13.2931
9.15233
8.70481
13.8787
24.0277
35.9397
45.2317
48.4805
44.9391
36.8612
28.2296
22.6129
21.3839
23.2992
25.605
25.9123
23.6638
20.3239
18.2665
19.1548
22.8911
27.8061
31.9324
34.5081
36.7092
41.0992
50.0826
64.2643
81.6928
98.4688
110.447
115.17
113.069
107.329
102.506
102.526
108.973
120.403
132.959
141.992
144.015
138.144
126.414
112.837
101.587
95.137
93.183
92.8865
90.3269
82.4744
68.7213
51.2132
33.8302
20.3512
12.7471
10.4511
10.9189
11.1002
8.99448
4.482
-0.922752
-5.13399
-6.69614
-5.44645
-2.34458
1.31002
4.71784
7.9474
11.648
16.3532
21.8709
27.1797
30.916
32.1546
30.9961
28.5896
26.5557
26.1314
27.5207
29.8124
31.5023
31.3322
28.9973
25.3711
22.159
21.1666
23.522
29.1645
36.7723
44.1317
48.832
49.0917
44.4822
36.2918
27.3115
20.9819
20.0978
25.5423
35.6354
46.5181
53.5596
53.2566
44.7832
30.4325
14.6894
2.3348
-3.53266
-2.63387
2.68562
8.80215
12.5842
12.7139
9.99515
6.6471
5.07252
6.77272
11.887
19.4344
27.9712
36.244
43.5378
49.6713
54.7951
59.1886
63.1466
66.9081
70.5366
73.7422
75.7722
75.5485
72.126
65.3194
56.1441
46.7195
39.5236
36.277
37.0212
39.9424
42.1368
40.9906
35.4667
26.6021
16.9357
9.18987
4.95118
4.08003
5.13123
6.45732
7.2741
8.0316
9.90538
13.795
19.5218
25.7676
30.7985
33.499
34.0454
33.7824
34.3867
36.849
40.9134
45.3104
48.6207
50.2236
50.7546
51.812
55.1042
61.5378
70.7396
81.2272
91.0785
98.7172
103.435
105.465
105.652
104.949
103.969
102.77
100.939
97.921
93.4838
88.0946
83.0029
79.8784
80.0573
83.6835
89.1919
93.5156
93.0946
85.3437
69.9283
49.21
27.5833
9.96205
0.0902836
-0.586185
6.92966
19.9209
35.0925
49.5532
61.334
69.4844
73.994
75.7262
76.3186
77.8373
82.0359
89.3841
98.3454
105.458
106.453
98.0677
79.7438
54.2947
27.099
4.10039
-10.4606
-15.507
-13.1272
-7.22684
-1.61347
1.50291
1.94314
0.927977
-0.0558293
-0.168739
0.534144
1.47739
2.15065
2.46352
2.69687
3.20929
4.19751
5.6752
7.5662
9.65898
11.2941
10.9821
6.40336
-4.84132
-23.8207
-48.8679
-75.118
-95.6165
-103.814
-96.393
-75.004
-45.9009
-17.513
2.92734
12.076
11.2419
5.01679
-1.34089
-4.34181
-3.36631
-0.132637
2.86811
3.93784
2.90976
0.853822
-0.841415
-1.34323
-0.716425
0.337208
1.04578
1.03677
0.458921
-0.230335
-0.607722
-0.527677
-0.149965
0.215666
0.321643
0.12325
-0.216754
-0.444
-0.37615
-0.0241534
0.396956
0.582702
0.327556
-0.316256
-1.01633
-1.3191
-0.928729
0.0499118
1.07442
1.41061
0.57149
-1.28356
-3.24698
-3.98505
-2.37994
1.81496
7.6655
13.3067
16.689
16.4934
12.7792
7.03891
1.61046
-1.30056
-0.552784
3.45669
8.97769
13.6598
15.5367
13.8172
9.15333
3.29052
-1.72348
-4.40756
-4.40141
-2.46401
0.0611383
2.03493
3.16087
4.14019
6.25451
10.5833
17.2621
25.1847
32.3378
36.6456
36.9374
33.5816
28.4737
24.363
23.8026
28.1707
37.1736
49.0262
61.2157
71.5176
78.8442
83.5891
87.3488
92.1594
99.5708
109.941
122.229
134.373
144.086
149.77
151.181
149.571
147.241
146.65
149.408
155.548
163.408
170.197
173.075
170.297
161.942
149.858
136.822
125.282
116.275
109.064
101.673
92.0806
79.445
64.7243
50.3494
39.1001
32.7539
31.2043
32.5061
33.8335
32.8705
28.9318
23.2444
18.2377
16.1822
17.8548
21.9172
25.3744
24.9557
18.7887
7.54043
-5.59744
-16.1686
-20.4197
-17.0403
-7.79643
3.29956
11.8984
15.3459
13.8005
9.87576
7.04145
7.679
11.8557
17.4499
21.4841
21.8523
18.4462
13.0838
8.36515
6.192
6.8322
9.02633
10.9806
11.5688
10.9825
10.4544
11.2718
13.7401
16.7826
18.4676
17.193
12.8456
7.24559
3.56469
4.9654
13.1294
27.405
44.9822
61.9881
74.9592
82.0141
83.2606
80.3826
75.7292
71.3836
68.5831
67.5993
67.9539
68.7661
69.0874
68.1951
65.8538
62.4934
59.1723
57.2081
57.5271
60.015
63.2808
65.1141
63.548
58.0272
49.9984
42.4628
38.5844
40.022
45.8977
53.0334
57.4107
56.1187
48.7581
37.5628
26.2079
17.9938
14.3972
14.7104
16.8264
18.5905
18.8885
17.9068
16.5687
15.6473
15.1912
14.612
13.3012
11.2866
9.43002
8.98722
10.7866
14.5451
18.7781
21.4162
20.8339
16.7498
10.5127
4.60052
1.55032
2.81645
8.09025
15.3979
21.9381
25.2856
24.4202
20.1171
14.5262
10.1443
8.67842
10.3473
13.9524
17.6456
19.9534
20.4867
19.9556
19.5299
19.9839
21.2033
22.3924
22.8549
22.8022
23.5695
26.9609
34.0209
43.9768
54.0986
60.7388
61.0991
54.765
44.0921
33.1334
25.6325
23.1723
24.5071
26.434
25.6756
20.6782
12.3207
3.21429
-3.87665
-7.48463
-7.92105
-6.64145
-5.08448
-3.87559
-2.9549
-2.45733
-3.54822
-8.34316
-18.6052
-33.7797
-49.5462
-58.0106
-49.9186
-18.2149
38.5055
114.198
196.13
268.053
314.729
326.243
300.747
244.827
171.51
96.5574
34.1931
-6.50634
-23.5084
-21.4759
-9.35498
3.20219
9.2533
6.56104
-2.49178
-12.8362
-19.4903
-19.8673
-14.6412
-6.95419
-0.55041
2.14044
1.0487
-1.75108
-3.26406
-1.12265
5.27721
14.5032
23.7053
29.7975
30.7034
26.2013
18.0786
9.54909
4.13699
4.42416
11.1251
22.8576
36.7131
49.4004
58.4814
63.1791
64.4455
64.3305
65.006
67.916
73.388
80.7631
88.8516
96.4334
102.608
106.967
109.67
111.468
113.644
117.745
125.058
135.971
149.509
163.371
174.599
180.677
180.571
175.193
167.011
158.923
152.93
149.206
146.021
140.53
130.042
113.22
90.7008
64.9468
39.483
17.8609
2.7423
-4.64742
-4.62925
1.17886
10.3328
20.1233
28.1268
32.6635
33.0868
29.8419
24.2677
18.1835
13.3652
11.0558
11.6434
14.592
18.6356
22.1757
23.7702
22.5801
18.6453
12.8995
6.90353
2.35964
0.555028
1.92294
5.89092
11.0905
15.8644
18.879
19.5935
18.3894
16.3101
14.5377
13.8555
14.3445
15.4404
16.2926
16.2225
15.0463
13.1273
11.1766
9.94674
9.97825
11.4831
14.3404
18.1303
22.1697
25.5903
27.5326
27.4675
25.5225
22.5967
20.0942
19.3085
20.7342
23.7022
26.6135
27.7167
26.0304
21.8794
16.7019
12.2142
9.41669
8.04652
6.82354
4.35337
0.135296
-4.95658
-9.04071
-10.2555
-7.85935
-2.77048
2.76402
6.18964
5.81287
1.52915
-5.20728
-12.0886
-16.9469
-18.5801
-17.1019
-13.7538
-10.3236
-8.41783
-8.84731
-11.3302
-14.6316
-17.1255
-17.5962
-15.9494
-13.466
-12.3819
-14.887
-21.9696
-32.6969
-44.3826
-53.6753
-58.108
-57.3428
-53.4273
-49.8398
-49.7174
-54.1283
-61.285
-67.1792
-67.4212
-59.4467
-44.0191
-25.2441
-9.00224
-0.462409
-1.80328
-11.2023
-23.5771
-32.7534
-34.0745
-26.2799
-11.8476
4.27067
16.8562
22.5263
20.8289
13.9787
5.55069
-1.12294
-4.08979
-3.05087
1.12983
7.22619
14.2648
21.696
29.1993
36.4182
42.9025
48.3251
52.7975
56.9994
61.9381
68.396
76.3531
84.7383
91.7151
95.4239
94.8399
90.3222
83.5637
76.9472
72.6013
71.5847
73.5492
76.9853
79.8875
80.5131
77.9279
72.181
64.1457
55.1821
46.7908
40.3529
36.9609
37.2983
41.534
49.2373
59.3493
70.2571
79.9964
86.5846
88.4519
84.8903
76.3799
64.6156
52.1014
41.3318
33.8087
29.3304
25.9925
21.0844
12.6207
0.83014
-11.2105
-18.3264
-15.2764
0.712895
28.0599
60.572
89.1447
104.889
102.515
82.6733
52.3518
23.1661
8.10793
17.7558
57.0283
123.34
206.641
291.406
360.217
398.132
396.738
356.63
287.407
204.959
126.795
66.965
32.3431
21.579
26.9339
38.0699
46.1304
46.4957
39.3503
28.2554
17.7383
11.1425
9.57768
12.1005
16.6417
20.9959
23.4109
22.7384
18.4182
10.5762
0.270923
-10.3669
-18.4414
-21.1699
-17.0636
-6.82574
6.60927
19.0977
26.9979
28.7653
25.5957
20.7331
17.7582
18.7487
23.3037
28.9667
32.8007
33.2031
30.8985
28.5148
28.9847
33.7216
41.6764
49.8716
55.1315
55.9944
53.6697
51.4492
52.8985
59.8712
71.4856
84.6304
95.6645
102.307
104.649
104.786
105.388
108.115
112.79
117.702
120.74
120.577
117.201
111.572
104.758
97.1915
88.5369
78.2028
66.0835
52.9635
40.2729
29.3362
20.6227
13.5203
6.82284
-0.356701
-7.8254
-14.2068
-17.5915
-16.5648
-11.002
-2.17454
7.84577
17.0659
24.1779
28.5826
29.9739
27.96
22.1613
12.8287
1.53918
-8.68908
-14.2514
-12.5556
-3.54858
9.78869
22.4709
29.7096
29.1988
22.2414
13.043
6.49065
5.59095
9.95289
16.1366
19.6612
17.5585
10.0793
0.64781
-5.88098
-5.71034
1.96242
14.5198
27.156
35.093
35.6862
29.4631
19.7095
10.8974
6.72196
8.60558
15.2559
23.3909
29.2688
30.3532
26.4081
19.5516
13.2302
10.5548
12.7533
18.4918
24.4443
26.8949
23.6112
15.0398
4.17172
-4.8958
-8.97875
-7.3473
-1.96946
3.65733
6.42086
5.18047
1.15584
-3.04575
-5.13508
-4.5379
-2.65144
-1.83128
-3.75137
-8.15883
-12.808
-14.651
-11.6102
-3.90182
5.87104
13.9383
17.2372
14.92
8.68644
1.79541
-2.67
-3.31534
-0.910479
2.39191
4.6095
5.3438
6.2259
10.1094
19.4306
34.6365
53.5659
72.1694
86.226
93.1703
93.0811
88.3449
82.2368
77.2421
74.0479
71.6984
68.698
64.2915
59.0756
54.5574
51.9749
51.193
50.4683
47.3347
40.1353
29.2691
17.3352
7.98859
4.09272
6.20005
12.2326
18.5601
21.8824
20.8795
16.7441
12.3603
10.6457
13.0027
18.7004
25.4412
30.6978
33.0221
32.6189
30.9546
29.7297
29.8687
31.102
32.3171
32.3908
30.9526
28.6124
26.5417
25.7026
26.2314
27.3791
28.0543
27.6294
26.4909
25.9533
27.5456
32.0792
39.067
46.8762
53.5586
57.8762
59.9
60.8066
61.9951
64.088
66.4739
67.7176
66.5971
63.0826
58.5536
55.0045
53.6531
53.8286
52.9493
47.803
36.5344
20.215
2.97398
-9.60049
-13.1025
-6.63449
6.48936
20.1767
28.5044
28.6907
22.4976
15.2321
12.7628
18.0716
29.2071
39.8909
42.7159
33.5084
14.7025
-4.13007
-9.21945
11.965
64.9809
144.868
236.467
318.712
371.378
381.746
348.679
282.636
201.747
125.556
68.8385
37.7173
29.2592
34.322
42.1859
44.9641
40.092
30.1615
20.5461
16.1454
18.8118
26.5584
34.7472
38.532
35.31
26.0047
14.6126
6.2784
4.84676
11.0542
22.1986
33.4111
39.9031
39.1085
31.7221
21.1873
11.947
7.36168
8.31851
13.1537
18.806
22.4949
23.0033
20.9422
17.9959
15.717
14.6398
14.206
13.4454
11.8809
10.0186
9.09727
10.2812
13.8532
18.9597
24.0897
27.9853
30.4012
32.2337
34.9474
39.6707
46.5242
54.5687
62.354
68.6704
73.0142
75.5027
76.3649
75.4184
71.9388
65.054
54.4303
40.8083
26.0226
12.4439
2.12039
-3.94089
-6.00704
-5.3049
-3.38225
-1.49542
-0.291645
0.156571
0.103047
-0.128631
-0.275704
-0.140886
0.435938
1.55094
3.14743
4.94065
6.44918
7.16359
6.78754
5.42582
3.61047
2.13795
1.78639
3.03684
5.91141
9.98154
14.5269
18.7742
22.1276
24.3094
25.3684
25.5541
25.1205
24.1598
22.5701
20.1942
17.0612
13.5692
10.4485
8.45796
7.94554
8.54467
9.25339
8.94859
7.10855
4.33113
2.28166
2.99231
7.81194
16.5474
27.2819
37.0151
42.8345
43.0485
37.7505
28.6086
18.0784
8.488
1.40911
-2.52027
-3.44098
-2.02986
0.665844
3.3383
4.61672
3.44646
-0.444401
-6.25679
-12.278
-16.5408
-17.7327
-15.897
-12.5202
-9.89694
-10.0623
-13.824
-20.3913
-27.777
-33.741
-36.77
-36.603
-34.09
-30.5403
-26.9749
-23.6969
-20.3662
-16.4602
-11.791
-6.75844
-2.20578
1.00878
2.45301
2.32119
1.30119
0.21134
-0.37525
-0.323259
0.123434
0.573946
0.74017
0.569428
0.216337
-0.0934337
-0.207948
-0.120706
0.0544035
0.171485
0.144661
-0.00613869
-0.173945
-0.232733
-0.117151
0.128694
0.363427
0.423523
0.227682
-0.149452
-0.491109
-0.554689
-0.239276
0.298523
0.677918
0.497041
-0.388483
-1.68683
-2.74597
-2.90403
-1.94893
-0.402282
0.613295
-0.0490739
-2.79314
-6.75221
-9.87444
-9.69476
-4.47417
5.87316
19.598
33.8483
45.9861
54.8045
60.9708
66.4236
73.0295
81.2533
89.627
95.389
96.0119
90.8016
81.6522
72.4486
67.3236
68.6174
75.5889
84.5823
90.6135
89.6127
80.223
64.2894
45.8561
29.2504
17.264
10.3286
6.98774
5.24341
3.893
3.03632
3.4819
5.50013
7.84231
7.87286
3.0476
-6.87696
-18.1314
-22.9441
-11.7996
22.6405
81.5232
157.595
236.127
299.013
330.671
323.431
280.234
213.491
140.608
78.0328
36.2359
17.4865
16.9358
26.0781
36.7603
43.9641
46.4479
45.5083
42.9741
39.6927
35.2397
28.7403
20.0519
10.4386
2.27935
-2.00897
-1.18262
4.18527
11.9636
19.4346
24.4178
25.9704
24.3975
20.7217
16.029
11.0886
6.38258
2.37406
-0.305916
-0.976765
0.70148
4.33677
8.72955
12.2513
13.5251
12.0477
8.40226
3.94465
0.152094
-1.98832
-2.21913
-0.796072
1.98146
6.14845
12.105
20.297
30.7887
43.042
56.0715
68.8857
80.9199
92.1682
102.916
113.245
122.648
130.018
134.072
133.959
129.71
122.258
113.021
103.302
93.8447
84.7827
75.9619
67.384
59.4597
52.8938
48.2692
45.6009
44.1601
42.7161
40.0948
35.7653
30.1431
24.4539
20.2353
18.7354
20.4866
25.2075
31.992
39.6137
46.7692
52.2026
54.7835
53.6635
48.5585
40.0538
29.7153
19.819
12.6888
9.87376
11.5444
16.4326
22.3875
27.2991
29.9389
30.3111
29.3811
28.3929
28.2005
28.9856
30.4573
32.3102
34.5611
37.4989
41.2917
45.5744
49.398
51.6856
51.9679
50.9032
50.1471
51.5106
55.8239
62.1916
68.1767
70.9388
68.7687
62.16
53.7627
47.1582
45.0613
47.8859
53.4246
57.801
57.205
49.585
35.5776
18.3898
2.80474
-6.27168
-5.31529
6.56415
26.8827
49.8587
67.5811
72.2583
58.992
28.0016
-14.862
-59.8834
-97.0086
-119.596
-126.575
-121.938
-111.881
-101.246
-91.2322
-79.6042
-63.0599
-40.172
-13.0145
13.5146
34.2013
46.2645
50.6816
51.3737
52.8578
57.8302
66.0347
74.8668
81.0941
82.5363
78.7853
70.817
60.06
47.699
34.6324
21.9116
11.1113
4.1647
2.64163
6.90365
15.705
26.5453
36.6109
43.7936
47.2705
47.4365
45.3793
42.3059
39.245
37.0653
36.5782
38.4467
42.816
48.8755
54.7251
57.8159
55.9031
48.1021
35.4945
20.9139
7.95216
-0.36229
-2.59859
0.778989
7.89984
16.4221
24.4089
30.7712
35.2124
37.8939
39.1302
39.2925
38.8851
38.611
39.2724
41.5069
45.5132
50.9494
57.0673
62.9816
67.8854
71.0924
71.9513
69.8084
64.1783
55.1067
43.5092
31.1902
20.3828
12.9364
9.53839
9.40519
10.6613
11.2544
9.94826
6.87718
3.38719
1.27543
1.85925
5.36762
10.9317
17.1005
22.5328
26.4777
28.8437
29.942
30.1707
29.8852
29.4986
29.6376
31.102
34.5122
39.7874
45.803
50.5528
51.8846
48.5065
40.7333
30.5048
20.5845
13.3157
9.59975
8.67076
8.79482
8.47689
7.44159
6.77715
8.13962
12.5074
19.2856
26.3775
31.2527
32.4081
30.3261
27.295
26.1272
28.4972
33.8881
39.8124
43.2232
42.3132
37.6431
31.9219
28.5521
29.7835
35.543
43.5918
50.8525
55.0552
55.6875
53.7112
50.3224
45.6805
38.5991
27.6133
12.9462
-1.78516
-9.33674
-0.647197
31.762
90.1244
169.117
256.061
333.819
385.506
399.431
372.577
311.463
230.145
146.054
75.0916
27.5455
6.08526
6.29368
19.3062
35.4182
47.2858
51.6542
49.2516
43.2568
37.2449
33.5473
32.5804
33.1566
33.3678
31.5233
26.778
19.3518
10.4297
1.85866
-4.30086
-6.34148
-3.50447
3.60261
13.0141
21.9641
27.8533
29.2305
26.3248
20.8547
15.2039
11.379
10.2619
11.4824
13.8875
16.276
17.984
19.0563
20.0132
21.4339
23.6224
26.5022
29.723
32.8557
35.5639
37.7109
39.4213
41.1157
43.4885
47.3701
53.4548
61.9631
72.3888
83.4909
93.5909
101.098
105.065
105.536
103.548
100.75
98.7589
98.4839
99.6463
100.717
99.3448
93.1959
80.9269
62.9205
41.4387
20.0602
2.56437
-8.3119
-11.7446
-8.97317
-2.70248
3.95799
8.56936
10.0573
8.83417
6.39532
4.59805
4.89178
7.75329
12.5238
17.7392
21.8729
24.1952
25.3025
26.9253
30.9485
38.0507
46.7263
53.401
53.828
45.1884
27.7774
5.22859
-17.0384
-34.4406
-45.5264
-52.6359
-60.5051
-73.5657
-93.4564
-118.14
-143.075
-163.685
-177.67
-185.835
-191.086
-196.333
-202.64
-208.74
-212.115
-210.899
-205.362
-198.078
-192.67
-191.89
-196.119
-203.098
-208.949
-209.854
-203.498
-189.611
-169.553
-145.367
-118.951
-91.7512
-64.9767
-39.9782
-18.3846
-1.80626
8.74746
13.367
13.3209
10.6193
7.2676
4.5911
2.96208
2.03687
1.33945
0.855705
1.30526
3.92119
9.80799
19.1604
30.725
41.8304
49.104
49.6994
42.5852
29.321
13.8718
1.37764
-3.7294
0.490093
12.5924
28.2048
41.6822
48.2679
45.8234
35.4108
20.5664
5.70703
-5.54597
-11.4133
-12.0584
-8.91017
-3.67758
2.45948
9.21522
17.1112
27.089
39.9918
56.0329
74.3577
92.8446
108.326
117.328
117.218
107.352
89.7055
68.5576
49.2088
36.1666
31.5405
34.3438
41.0052
46.8597
47.9652
42.4974
31.2159
16.9321
3.31141
-6.45313
-10.6057
-9.16124
-3.60537
3.832
11.0216
16.5977
20.2293
22.443
24.103
25.8002
27.4379
28.2232
27.0802
23.2803
16.9647
9.26852
1.95421
-3.28284
-5.50412
-4.88045
-2.54922
-0.0645287
1.28715
1.00027
-0.495092
-2.03995
-2.17008
0.431419
6.59014
16.4549
29.4595
44.4076
59.6679
73.4693
84.2548
91.0117
93.4821
92.1822
88.2265
83.0055
77.7951
73.3728
69.7159
65.8839
60.2071
50.8691
36.8214
18.748
-0.395411
-15.7271
-21.829
-14.8349
5.60449
35.4434
67.0638
91.678
102.405
96.716
77.1766
50.1811
23.3206
2.61769
-9.17695
-12.6612
-10.5158
-5.77478
-0.563555
4.22
8.43087
11.9767
14.4493
15.2874
14.2418
11.713
8.65943
6.10987
4.60899
3.97276
3.51781
2.60874
1.15988
-0.237077
-0.646579
0.615823
3.48163
7.01768
9.78178
10.475
8.57503
4.65004
0.201401
-2.911
-3.23081
-0.337537
4.93415
10.8198
15.3982
17.4957
17.3016
16.367
16.9353
20.8964
28.8774
39.946
52.0854
63.185
72.0036
78.5937
84.0156
89.6046
96.3164
104.572
114.635
127.122
143.1
163.49
187.995
214.229
237.787
253.505
257.501
248.994
230.917
208.87
188.826
174.68
166.838
162.49
157.337
147.838
132.799
113.614
93.1948
74.3298
58.4046
45.1155
33.1742
21.4594
9.89524
-0.42041
-7.82879
-11.0473
-9.88636
-5.39713
0.550481
5.97151
9.39059
10.1582
8.44102
5.01623
1.01051
-2.3532
-4.01363
-3.3429
-0.371658
4.15066
8.95072
12.6519
14.2545
13.4555
10.6687
6.76954
2.73162
-0.653801
-2.88274
-3.71164
-3.10675
-1.22644
1.61707
5.12197
9.31322
14.8656
23.1639
35.8892
54.1766
77.7029
104.212
129.841
150.201
161.759
162.886
154.142
137.774
116.846
94.4851
73.5318
56.466
45.2818
41.0515
43.2914
49.587
55.9733
58.2019
53.4603
41.7033
25.8205
10.4195
-0.249524
-4.19584
-2.44444
1.72863
4.64087
4.12558
0.526816
-3.69454
-5.44216
-2.69856
4.43576
13.8513
22.5154
27.8791
28.8727
26.0715
21.1069
15.7624
11.2621
8.03495
5.9137
4.50564
3.46591
2.57106
1.67676
0.71311
-0.212516
-0.686526
-0.00176185
2.58032
7.38463
13.9283
20.8451
26.255
28.4692
26.7201
21.5746
14.8236
8.8838
5.95448
7.25883
12.6501
20.7196
29.3761
36.7182
41.9108
45.7362
50.538
59.4602
75.162
98.4754
127.596
158.259
184.951
202.707
208.749
203.234
188.824
169.368
148.402
128.215
109.838
93.7404
80.6277
71.6945
68.1113
70.0447
75.8765
82.2325
84.9862
80.8429
68.751
50.4443
29.8545
11.6834
-0.203833
-3.89942
0.26479
10.1975
22.9239
35.4505
45.3836
51.2714
52.7513
50.5462
46.267
41.9631
39.4677
39.7579
42.6338
46.9257
51.1768
54.4633
56.9052
59.5652
63.7764
70.2746
78.6322
87.3269
94.417
98.4599
99.1855
97.5877
95.4173
94.3578
95.2896
97.9585
101.142
103.191
102.703
99.0709
92.7527
85.159
78.2098
73.6784
72.5416
74.5888
78.4787
82.2596
84.1462
83.1898
79.4928
73.8376
66.9322
58.739
48.3957
34.9737
18.8537
3.04292
-6.42983
-1.66604
24.4227
74.7268
145.254
224.58
296.201
343.353
354.663
328.352
273.083
204.839
140.973
93.9163
67.2621
55.8979
49.9293
40.3407
23.5436
2.63161
-15.0658
-22.592
-17.5202
-3.39915
12.202
21.8422
22.1644
15.4561
8.01483
6.33313
13.3184
26.6848
40.3745
48.1307
47.1352
39.6305
31.6182
29.4068
35.9872
49.2901
63.2939
71.3324
69.7331
59.7572
46.7974
37.3335
35.3833
40.424
47.9003
51.965
48.8641
39.0541
26.8937
18.1493
16.7895
22.9264
33.0673
42.4749
48.1835
50.8281
54.1517
62.478
77.7068
97.738
117.392
131.345
137.291
137.297
136.377
139.035
145.875
152.463
151.351
136.241
105.951
65.8153
25.6642
-4.58471
-19.3091
-19.2498
-10.354
-0.296141
5.2702
4.78307
0.393302
-4.19759
-6.17161
-4.93383
-1.87824
0.912967
2.03787
1.40525
-0.0566821
-1.20999
-1.42404
-0.799162
0.103015
0.72377
0.830679
0.546019
0.154222
-0.120542
-0.215666
-0.187628
-0.109694
-0.0106469
0.107434
0.212746
0.220389
0.0396819
-0.337323
-0.78132
-1.06795
-1.01381
-0.627887
-0.168859
-0.0401784
-0.55285
-1.6821
-2.97417
-3.6918
-3.1496
-1.06277
2.30186
6.28786
10.2575
14.0149
17.9736
22.9224
29.4746
37.4892
45.803
52.4748
55.473
53.5013
46.5773
36.1004
24.3978
13.9738
6.78715
3.80583
4.91989
9.13219
14.8899
20.4571
24.295
25.4299
23.7366
20.0046
15.6695
12.2295
10.5647
10.5055
10.9346
10.4444
8.23545
4.7415
1.55553
0.607727
3.00534
8.21192
14.122
18.1048
18.5053
15.7544
12.3813
11.7985
16.4396
26.2466
38.377
48.3659
52.1852
48.1369
37.5983
24.261
12.3131
4.55832
1.43941
1.37617
2.07948
1.99774
1.06301
0.392592
1.25141
3.99832
7.6952
10.605
11.2405
9.29315
5.86232
2.84334
1.84447
3.28058
6.1771
8.79289
9.69089
8.62886
6.75131
5.96572
7.84954
12.7007
19.2694
25.3428
28.8916
29.1851
27.2842
25.6308
26.9028
32.6668
42.4631
53.7541
62.778
65.9523
61.2594
49.0792
32.1754
14.8683
1.69542
-3.99425
-1.06764
9.07195
23.0027
36.5183
46.1922
50.6993
51.32
51.3116
54.3094
62.42
74.9305
88.3628
97.9881
100.145
94.1986
83.0673
71.9207
65.6294
66.2484
71.8635
77.4573
77.3957
68.287
50.7707
29.3535
10.4169
-0.588949
-1.40411
6.33124
18.1113
28.7149
34.4049
34.2201
29.9263
24.8427
22.2132
23.8854
29.8124
38.4479
47.7038
55.9353
62.4906
67.6474
72.093
76.324
80.3237
83.6591
85.8556
86.7412
86.5074
85.4596
83.6733
80.8466
76.4924
70.3477
62.6925
54.3159
46.1295
38.7094
32.1339
26.2716
21.2967
17.9481
17.1447
19.0256
22.0284
22.8553
17.8354
5.3719
-11.7014
-25.3802
-24.3841
1.5342
56.4644
134.771
221.096
294.511
335.497
332.991
288.525
215.636
134.777
65.8965
21.8196
5.04464
8.91068
22.0966
34.073
39.0167
36.7695
31.0185
26.1563
24.6362
26.0319
27.8936
27.5454
23.6557
16.7908
8.88239
2.13338
-1.95952
-3.03858
-1.75566
0.670483
2.94667
4.12644
3.94736
3.04272
2.88338
5.29661
11.5971
21.6736
33.5702
43.9758
49.5707
48.6294
42.0054
32.8611
25.1708
21.7499
22.8814
26.3078
28.5866
27.0251
21.0969
12.5826
4.45229
-0.765534
-2.13851
-0.38988
3.04109
7.23581
12.5009
20.1065
31.264
46.0185
62.7629
78.6807
90.8721
97.5467
98.668
95.7727
91.123
86.6516
83.1887
80.2605
76.471
70.2488
60.645
47.8878
33.4957
19.8901
9.61379
4.41656
4.55992
8.65424
14.1461
18.2888
19.1902
16.4709
11.2488
5.48906
1.0693
-0.979877
-0.73419
0.896608
2.73454
3.86042
3.88008
2.91816
1.47987
0.321241
0.345415
2.42735
7.08154
14.0422
22.0063
28.8291
32.2736
31.0705
25.759
18.7632
13.4962
12.8056
17.5062
25.7905
33.9146
37.8999
35.4352
27.0267
15.8112
6.13285
1.61227
3.67083
11.1965
21.4161
31.4179
39.4778
45.5193
50.5561
55.5376
60.3242
63.4177
62.628
56.3243
44.5782
29.539
14.7721
3.83457
-1.22826
-0.710237
3.03022
6.81942
8.26183
6.86559
4.13059
2.57666
4.2529
9.5423
16.9071
23.6982
27.5649
27.6786
25.1034
22.1378
21.0294
22.8019
26.8382
31.4077
34.7831
36.2685
36.5486
37.1852
39.5886
44.0817
49.5991
54.1838
55.9937
54.2597
49.6925
44.1518
39.7882
38.1164
39.4676
43.033
47.3988
51.2523
53.9121
55.476
56.5937
58.0347
60.2746
63.2644
66.4423
68.9489
69.955
68.992
66.1764
62.2353
58.279
55.3536
53.9162
53.4646
52.5511
49.2748
42.1238
30.8211
16.7573
2.72862
-7.99082
-12.8765
-11.1392
-4.01159
5.7946
15.1947
21.8726
24.9437
24.9015
22.9863
20.3863
17.7051
14.9163
11.7197
7.9987
4.07177
0.608166
-1.68979
-2.40117
-1.49847
0.777983
4.15143
8.45888
13.6178
19.4594
25.5845
31.3777
36.1945
39.5993
41.4936
42.0513
41.5267
40.0923
37.834
34.8982
31.6431
28.6275
26.3857
25.1281
24.6072
24.3068
23.8753
23.4876
23.7849
25.2802
27.5256
28.6428
25.7849
16.6377
1.40755
-15.7566
-26.9413
-22.6597
4.50818
56.2341
126.383
201.715
265.383
302.077
302.93
268.363
207.843
136.715
71.3255
24.2268
1.04922
-0.068817
13.397
31.731
46.4842
52.8778
50.4433
41.994
31.645
22.8564
17.2836
14.7261
13.9174
13.5605
13.0255
12.4261
12.1904
12.5088
13.0485
13.1038
12.057
9.8398
7.10162
4.97719
4.57916
6.48102
10.4419
15.4832
20.2508
23.4801
24.3684
22.7327
18.9439
13.7145
7.85608
2.10851
-2.91278
-6.66309
-8.57472
-8.01035
-4.3327
2.89663
13.6528
27.2448
42.3128
57.1068
70.0058
80.1011
87.5903
93.7553
100.46
109.325
120.922
134.381
147.641
158.267
164.484
165.912
163.627
159.503
155.171
151.141
146.567
139.781
129.314
114.878
97.7732
80.5419
66.0246
56.2975
51.9641
52.0782
54.6655
57.5662
59.2368
59.2144
58.1131
57.1838
57.6153
59.8379
63.1228
65.6946
65.4017
60.7319
51.7409
40.4098
30.1345
24.4484
25.4834
32.8851
43.7507
53.7093
58.7173
56.7812
48.8314
38.3604
29.9993
27.6679
33.0844
45.2128
60.7951
75.6772
86.3646
91.2258
90.9457
88.1146
86.1233
87.7513
93.9441
103.255
112.239
116.761
113.779
102.858
86.6729
70.1047
58.1558
53.5816
55.395
59.1224
58.8835
50.4073
33.5066
12.6695
-4.69523
-11.6281
-4.98692
12.8727
34.9707
52.7024
59.4648
53.141
36.3407
14.5134
-6.87265
-24.5334
-37.9265
-48.1736
-56.2933
-61.9816
-63.7112
-60.0221
-51.1086
-39.6183
-30.0441
-26.9084
-32.6262
-46.126
-62.935
-76.7427
-81.8054
-75.2354
-58.3043
-36.2831
-16.8512
-7.56903
-13.2289
-33.9963
-65.0836
-98.2304
-124.594
-138.008
-137.275
-126.439
-112.809
-103.573
-102.522
-108.45
-115.938
-118.089
-109.809
-90.0231
-61.8733
-31.0274
-3.15376
18.1329
32.022
39.951
44.3944
47.7688
51.8598
57.6766
65.3919
74.1809
82.1244
86.5488
84.9963
76.5463
62.7882
47.7379
36.4955
33.1745
39.1419
52.5205
69.2381
85.048
97.4067
106.215
113.132
120.005
127.473
134.591
139.67
141.733
141.582
141.721
145.069
153.16
164.907
176.727
184.096
183.78
175.581
162.621
149.953
142.175
141.269
145.781
151.762
154.92
152.804
145.822
136.583
127.983
121.212
114.867
105.731
90.7796
69.2596
43.6097
18.6543
-0.509101
-10.7748
-12.2332
-7.73975
-1.21619
4.27119
7.58645
9.29366
10.5003
11.6877
12.3495
11.6277
9.39216
6.85863
6.12094
8.72781
14.1761
19.4308
20.1108
13.027
-1.13926
-16.5376
-23.241
-10.6289
28.1969
92.8324
174.448
257.743
325.313
362.813
363.033
327.555
265.638
191.026
117.939
57.5947
16.1546
-5.6349
-11.3719
-7.07843
0.928119
7.81884
11.3017
11.7362
11.3546
12.9
18.2141
27.3564
38.6351
49.5037
57.836
62.8692
65.2797
66.3547
66.7853
65.8848
61.8252
52.8675
38.9027
22.3147
7.47633
-1.05505
-0.772129
7.34448
19.0762
28.917
32.7926
30.1399
24.2218
20.4555
23.5744
35.0723
52.2422
69.318
80.1631
81.1853
73.0644
60.4822
50.0179
47.2368
54.3379
69.4137
87.5813
103.371
113.211
116.852
117.141
118.351
123.944
134.892
149.329
163.64
174.325
179.634
180.125
177.91
175.114
172.489
169.031
162.816
152.547
138.813
124.223
112.214
105.155
102.83
102.234
98.8877
89.0392
71.5806
48.6902
24.8958
5.1072
-7.33284
-11.6411
-9.29827
-2.85288
5.3789
14.0158
22.4928
30.4239
37.0094
40.9262
40.7752
35.8
26.4516
14.4938
2.59986
-6.38287
-10.2253
-7.92688
0.0074002
11.6863
24.3334
35.0649
41.7305
43.5324
41.1685
36.4224
31.369
27.5603
25.5667
25.0557
25.2958
25.7487
26.3987
27.6584
29.9645
33.3579
37.3208
40.9618
43.4139
44.2023
43.3955
41.5102
39.2896
37.4996
36.8141
37.7514
40.5843
45.2078
51.0437
57.1077
62.293
65.7749
67.3239
67.3225
66.4383
65.1291
63.2834
60.2523
55.3013
48.2371
39.8256
31.6912
25.6735
22.9341
23.2883
25.158
26.2383
24.5923
19.6464
12.5739
5.84344
2.11809
3.02329
8.37971
16.2815
23.9869
29.1848
31.0128
30.3282
29.1158
29.3632
32.0074
36.5098
41.2681
44.6098
45.7868
45.3902
44.9356
45.8536
48.4816
51.6732
53.3114
51.4873
45.7089
37.4437
29.6398
25.4231
26.6299
32.9459
42.112
51.0878
57.55
60.9185
62.3697
63.858
66.729
70.7513
74.1749
74.8402
71.7343
66.0601
61.0783
60.616
66.9138
78.954
92.2966
100.738
99.1362
86.0444
64.7546
42.0904
25.4251
19.3656
23.781
34.1919
44.3092
49.3682
48.4859
44.8179
43.5083
48.6331
60.8483
77.0092
91.8828
100.912
102.466
98.3844
92.6623
89.1448
89.5942
93.1405
97.2507
99.479
98.8975
96.4307
94.0529
93.4922
95.3026
98.826
102.941
106.983
111.148
116.093
122.011
127.854
131.318
129.743
121.476
106.915
88.5886
70.1412
54.7439
43.7897
36.5717
31.0826
25.4271
19.0003
12.755
8.44458
7.35074
9.2992
12.5711
14.7587
14.046
10.1562
4.43439
-0.939538
-4.11727
-4.45862
-2.67664
-0.264781
1.38415
1.64508
0.792374
-0.372527
-1.09088
-1.05643
-0.472577
0.192944
0.543512
0.46423
0.116914
-0.223358
-0.355155
-0.247669
-0.0164908
0.175824
0.220273
0.110617
-0.0691295
-0.198276
-0.184145
-0.0123764
0.236286
0.415223
0.385428
0.106233
-0.308044
-0.617299
-0.583212
-0.140883
0.493328
0.878503
0.586152
-0.492787
-1.96827
-3.06811
-3.06281
-1.7956
0.0199736
1.01361
-0.103928
-3.61029
-8.19509
-11.1975
-9.71702
-2.13259
10.7819
25.8697
38.9193
46.7594
49.0451
48.6917
50.5519
58.8774
74.846
95.5187
114.921
126.834
127.918
119.562
107.401
98.7008
98.8539
108.767
124.442
138.95
145.803
142.03
129.476
113.74
101.357
96.6212
99.5765
106.056
109.673
104.764
88.9427
64.1449
35.8298
10.7803
-5.46883
-10.491
-5.44253
5.86609
18.7227
29.2491
35.4253
37.1546
35.6083
32.3625
28.7931
25.8958
24.3794
24.7402
27.1417
31.1911
35.8855
39.9511
42.5152
43.7329
44.8971
47.7985
53.5786
61.7149
69.8167
74.5007
72.9719
64.4577
50.6478
34.8289
20.1663
8.10947
-2.149
-12.8511
-25.9959
-41.8373
-58.4807
-72.8335
-82.3353
-86.4172
-86.805
-86.4737
-87.8685
-91.4268
-95.2415
-96.0334
-90.8608
-78.6288
-60.6374
-39.987
-20.2642
-4.22227
6.96075
13.6697
17.3063
19.5917
22.0023
25.4198
29.9393
34.8044
38.5422
39.4079
36.1182
28.6265
18.5216
8.70623
2.34217
1.47368
6.00578
13.6198
20.7683
24.3272
23.1064
18.451
13.6021
12.1034
16.0126
24.781
35.3378
43.3522
45.108
39.1589
27.0461
12.7733
1.26772
-3.52737
-0.1351
10.0002
23.2499
35.3814
43.2683
45.9734
44.7504
42.0437
40.0563
39.6628
40.2319
40.3972
39.2575
37.226
35.9476
37.2824
41.9603
48.7936
55.0614
57.9939
56.5625
52.4742
49.6116
52.0003
61.2839
75.1018
87.4288
90.9643
80.562
56.0492
22.9724
-9.24116
-30.9784
-36.3481
-25.5373
-4.56909
17.3836
31.8792
34.549
26.4915
13.2609
2.07775
-1.36678
4.91713
18.9153
36.0913
51.7547
63.0952
69.9557
74.1426
77.846
82.1533
86.4956
89.2519
89.0295
85.7354
80.7123
75.8296
72.1291
68.9652
64.3217
56.2321
44.4538
31.2394
20.4785
15.4642
16.499
19.9024
19.3905
9.5303
-10.326
-33.7784
-48.3662
-39.8844
1.58845
76.584
174.472
276.039
359.54
407.813
413.652
381.447
324.71
260.786
204.981
166.282
145.917
138.743
136.399
130.786
116.613
92.4506
60.3652
24.6764
-9.53076
-37.6698
-56.4826
-64.4312
-61.7357
-50.1407
-32.469
-12.0267
8.04327
25.3227
38.4694
47.2864
52.5246
55.5017
57.656
60.1342
63.4925
67.5598
71.4993
74.0802
74.1169
70.9555
64.8259
56.8787
48.8237
42.2606
37.9631
35.4555
33.1383
28.9936
21.6215
11.1593
-0.371344
-9.53833
-12.6964
-7.47522
6.04622
24.9995
44.4326
58.8556
64.0753
58.6347
44.3174
25.5281
7.78665
-4.10212
-7.53684
-2.75152
7.58503
19.5862
29.6684
35.7717
37.8251
37.3257
36.2828
36.0486
36.6057
36.6594
34.4902
29.1225
21.1697
12.844
7.03442
5.86556
9.48652
15.7881
21.3043
22.9193
19.5229
12.7092
6.0776
3.43433
6.8204
15.4359
26.0817
34.9172
39.5888
40.5448
40.7758
44.0886
52.8503
66.4548
81.3818
92.8381
97.1015
93.307
83.7438
72.5626
63.6466
58.8065
57.2009
56.1627
52.8483
45.7625
35.4021
23.8384
13.6478
6.85721
4.40335
6.18981
11.4596
19.1163
27.8255
36.0105
41.9955
44.4257
42.8167
37.8826
31.3353
25.1551
20.6911
18.1169
16.5897
15.0357
13.0714
11.4529
11.7171
15.1846
21.9253
30.3545
37.7798
41.6609
40.906
36.4872
31.0291
27.5882
28.2685
33.3643
41.399
49.9333
56.6537
60.1884
60.3374
57.7573
53.4042
48.0841
42.3129
36.4681
31.0576
26.8932
25.0333
26.4851
31.7699
40.5353
51.4052
62.2047
70.5591
74.695
74.1298
69.9207
64.296
59.7677
58.0878
59.5164
62.7442
65.5042
65.5881
61.8116
54.5265
45.5051
37.2885
32.2696
31.8317
35.82
42.5286
49.2701
53.4227
53.6338
50.6755
47.436
47.8142
54.8047
68.5952
85.6988
99.8044
104.218
94.886
72.5319
42.7663
13.9838
-5.98439
-12.8428
-7.02512
7.31003
24.707
40.7912
53.3176
61.5609
64.8191
61.3598
48.796
25.8489
-5.6014
-39.6765
-67.7985
-81.8276
-77.5678
-56.7795
-26.5144
4.01671
27.496
41.3981
48.2808
53.4188
61.1688
72.1116
82.5495
86.6019
79.7012
61.523
36.714
12.9957
-2.35713
-5.80944
1.05308
12.6779
22.5064
26.114
22.9229
15.7626
8.76413
4.93584
4.80651
6.77487
8.73262
9.77885
10.8486
13.8181
19.6708
26.9854
31.9197
30.0326
19.1644
1.83991
-14.2933
-18.5958
-1.46839
41.3836
106.345
182.158
253.04
303.444
322.665
307.658
263.318
200.427
132.278
71.1997
25.9396
0.40982
-6.24412
1.43632
16.8761
33.2731
45.1862
49.5963
46.2327
37.1284
25.5852
14.9183
7.40819
3.78855
3.36453
4.60911
5.92598
6.26104
5.36526
3.68505
1.99941
0.990176
0.921657
1.54545
2.25927
2.45499
1.90716
1.01159
0.719103
2.13611
5.94176
11.9105
18.8322
24.9503
28.761
29.7802
28.8496
27.7704
28.4188
31.8154
37.675
44.7046
51.4827
57.3895
63.0103
69.7379
78.7925
90.2549
102.731
113.909
121.732
125.525
126.424
126.812
129.067
134.274
141.598
148.612
152.407
150.87
143.528
131.607
117.354
103.039
90.1051
78.8116
68.4437
57.9282
46.5501
34.4637
22.7879
13.2302
7.36716
5.86797
8.01408
11.794
14.6193
14.4089
10.5644
4.34917
-1.56958
-4.26328
-1.86708
5.52492
15.8161
25.7399
32.1902
33.4605
29.8667
23.5157
17.3424
13.8168
13.8323
16.2017
17.9749
15.4986
5.87164
-11.7326
-35.404
-60.8221
-82.5302
-95.7246
-97.8761
-89.5381
-74.0175
-56.0647
-40.1454
-29.0001
-23.0246
-20.606
-19.1478
-16.2774
-10.7514
-2.78041
6.22959
14.3231
19.7529
21.6046
20.1187
16.6306
13.1387
11.61
13.2404
17.9479
24.3379
30.2192
33.5119
33.1774
29.7466
25.1701
22.0166
22.3607
26.8644
34.4755
42.8796
49.4845
52.4761
51.4755
47.5387
42.5672
38.4535
36.3715
36.4967
38.2043
40.5669
42.8646
44.8634
46.7656
48.9065
51.3872
53.8498
55.5264
55.5614
53.4693
49.5031
44.7118
40.5854
38.3786
38.4042
39.6709
40.1431
37.6183
30.8765
20.535
9.09912
0.0526984
-3.66792
-1.09474
6.2046
14.7752
20.8795
22.2717
19.2292
14.2946
10.863
11.3682
16.0327
22.8256
28.6046
30.7759
28.5611
23.2263
17.2391
12.9067
11.2809
11.8831
13.2821
14.0746
13.6521
12.3553
11.0438
10.4628
10.8552
12.0396
13.825
16.3989
20.3575
26.3004
34.2178
43.0563
50.7713
54.9171
53.5533
46.1055
33.8572
19.9145
8.65831
4.80919
12.2728
32.9716
65.9319
106.961
149.217
184.76
206.792
211.871
201.218
180.411
157.374
139.349
130.081
128.467
129.347
126.102
113.882
91.9423
63.9965
36.4841
15.6623
4.98553
4.0099
9.21182
16.1036
21.418
24.223
25.5331
26.8676
28.7682
30.219
29.2977
24.6011
16.505
7.40428
0.672871
-1.15749
1.9957
7.33637
10.3507
7.17901
-2.83087
-15.6171
-22.8278
-14.3019
18.1332
76.912
156.525
243.901
321.51
372.305
384.834
356.719
295.226
214.757
132.231
62.1177
12.8813
-14.0722
-22.9761
-20.7874
-14.1776
-7.57497
-2.69656
0.733897
3.80219
7.42586
11.8958
16.866
21.5432
24.8977
25.8904
23.7942
18.6053
11.3637
4.11253
-0.653987
-0.914681
3.99448
13.0076
23.7051
33.2788
39.6026
41.8812
40.6104
36.9748
32.0994
26.578
20.4756
13.6869
6.36056
-0.868821
-6.92051
-10.4897
-10.3196
-5.4623
4.4562
18.9686
36.6076
55.0559
71.7359
84.7279
93.6169
99.7575
105.661
113.677
124.606
137.04
147.884
153.898
153.465
147.618
139.71
133.862
132.996
137.462
144.954
151.657
153.947
149.756
138.985
122.991
103.639
82.5575
60.9625
39.957
20.9028
5.45966
-4.82834
-9.17157
-7.99957
-2.94874
3.64707
9.51174
13.0775
13.7864
12.0068
8.69949
5.01304
1.9302
0.0107917
-0.750185
-0.905041
-1.32106
-2.73986
-5.26458
-8.02481
-9.26407
-6.92702
0.441158
12.8859
28.7532
45.1388
58.9462
68.107
72.4021
73.4826
74.0425
76.4858
81.6749
88.3291
93.3836
93.2116
85.2347
69.2513
47.8833
25.8771
8.4662
-0.578217
-0.398709
6.63331
15.9125
22.5033
23.1388
17.4531
7.94054
-1.27688
-6.26335
-4.83499
2.76146
14.2282
26.3359
36.2004
42.1841
44.1707
43.2756
41.2389
39.7556
39.9145
41.8428
44.6387
46.6769
46.2863
42.6179
36.3232
29.6148
25.4991
26.3979
32.7917
42.6414
52.0374
56.8926
54.8868
46.6454
35.4817
25.7787
20.8368
21.3218
25.1253
28.6781
28.9653
25.135
18.8596
13.3234
11.4543
14.3755
20.8577
27.963
32.447
32.1708
26.8853
18.1575
8.63922
1.10009
-2.39168
-0.954228
4.9674
13.7504
23.0029
30.2124
33.5371
32.5031
28.2892
23.3671
20.5372
21.7222
27.0716
34.839
42.1384
46.2448
45.8139
41.4278
35.2148
29.7597
26.873
26.8268
28.4004
29.6466
28.9407
25.7676
20.8844
15.8443
12.1826
10.7006
11.1837
12.6364
13.8576
14.0436
13.1332
11.7686
10.9269
11.4123
13.4299
16.4138
19.186
20.4023
19.1373
15.382
10.2206
5.53983
3.31517
4.7326
9.54886
16.0468
21.6939
24.2534
22.8246
18.2656
12.7432
8.61225
7.22028
8.30223
10.3241
11.5877
11.4334
10.7681
11.4919
15.0491
20.9266
26.1039
26.0743
17.2425
-0.334599
-21.3112
-35.676
-31.8539
-1.32478
57.08
135.147
216.681
282.134
314.862
306.681
260.565
189.487
111.899
45.6764
2.80526
-13.3403
-7.47323
10.7279
30.7839
44.9278
49.8264
46.3034
37.68
27.7467
19.2576
13.3648
9.89433
8.03845
7.01453
6.42868
6.31992
7.00936
8.89283
12.2514
17.0973
23.0742
29.4593
35.3233
39.8326
42.5779
43.7472
44.014
44.1702
44.7122
45.6464
46.6619
47.5684
48.6838
50.8398
54.902
61.0474
68.276
74.5767
77.8036
76.8581
72.5076
67.3013
64.5253
66.6997
74.4168
86.1454
99.0854
110.558
119.134
124.911
128.884
131.914
133.998
134.282
131.728
125.934
117.488
107.62
97.4053
87.0813
75.9911
63.2205
48.5215
32.8924
18.3896
7.23236
0.721864
-1.37409
-0.603477
1.07695
2.33871
3.03037
3.94364
5.99574
9.37982
13.2336
16.0369
16.49
14.3339
10.61
7.19612
5.87774
7.4769
11.5219
16.6358
21.4266
25.3918
29.34
35.0767
44.4737
58.3527
75.7247
93.7816
108.708
117.008
116.811
108.606
95.0895
80.2075
67.7722
60.2284
58.0289
59.7998
63.138
65.647
65.7749
63.171
58.5153
52.9977
47.7283
43.3356
39.8804
37.0599
34.5461
32.258
30.4078
29.2904
28.9344
28.8417
28.0328
25.4685
20.6954
14.3738
8.33151
4.97997
6.26524
12.6231
22.4861
32.6749
39.5821
40.6496
35.4617
25.9452
15.5871
8.04346
5.77407
9.28459
17.23
27.2254
36.9169
44.8179
50.5921
54.7606
58.0649
60.8382
62.6851
62.6049
59.4804
52.6949
42.5797
30.4617
18.2517
7.7192
-0.237831
-5.99223
-11.0393
-17.3227
-26.301
-38.1592
-51.5257
-63.8384
-72.2202
-74.4966
-69.933
-59.4048
-44.9713
-29.0811
-13.7721
-0.188447
11.4423
21.458
30.2822
38.0873
44.756
50.1174
54.279
57.8273
61.7445
67.049
74.3222
83.3573
93.1198
102.067
108.7
112.122
112.352
110.286
107.31
104.76
103.439
103.388
103.977
104.254
103.416
101.221
98.1888
95.5356
94.8268
97.4545
104.076
114.2
126.072
136.941
143.668
143.489
134.7
117.048
91.7421
61.124
28.1752
-3.97213
-32.4274
-54.8398
-69.6561
-76.355
-75.5864
-69.0881
-59.2948
-48.6912
-39.1241
-31.3622
-25.1113
-19.4819
-13.6705
-7.50298
-1.55615
3.19619
6.00944
6.91522
6.88314
7.49804
10.3056
16.1435
24.7719
34.9603
44.9717
53.2096
58.7502
61.5558
62.3246
62.0841
61.7288
61.697
61.906
61.9412
61.3856
60.1206
58.4439
56.9405
56.1601
56.263
56.8308
56.9845
55.8111
52.9342
48.9414
45.387
44.2334
46.86
53.0327
60.372
64.7607
61.7932
48.8822
27.2217
2.67131
-15.0945
-15.192
10.8416
65.6621
144.293
234.687
320.621
386.022
419.276
416.147
380.464
322.533
255.974
194.035
146.467
117.696
106.601
107.77
113.737
117.542
114.854
105.044
90.9124
77.2026
68.4952
67.3139
73.1912
83.0367
92.5842
98.2273
98.4194
94.0596
87.7899
82.6262
80.5974
81.98
85.3656
88.3959
88.7451
84.9197
76.6275
64.71
50.7973
36.8682
24.831
16.1551
11.5614
10.8182
12.7379
15.4588
17.0019
15.9533
12.0197
6.22045
0.61118
-2.3597
-0.60648
7.01671
20.4996
38.8229
60.3246
83.1019
105.338
125.553
142.812
156.919
168.464
178.619
188.607
199.009
209.24
217.569
221.813
220.46
213.643
203.378
192.804
184.747
180.35
178.591
177.002
173.253
166.659
158.698
152.142
149.259
150.137
152.184
151.197
143.486
127.871
106.415
83.4651
63.5426
49.2724
40.497
34.9877
30.2171
25.0491
20.3067
17.9032
19.1423
23.3219
27.6104
28.3921
23.3594
13.1128
1.22839
-7.42333
-9.32744
-4.54809
2.75111
5.94841
-0.881229
-19.7739
-47.2376
-75.0773
-93.4385
-94.7544
-76.8173
-43.5852
-3.38547
34.6097
63.9791
83.0943
94.7981
104.093
115.156
129.228
144.358
156.931
163.967
164.86
161.649
157.839
156.599
159.453
166.154
175.575
186.792
199.461
213.147
226.154
234.878
234.557
221.375
194.885
159.255
122.296
92.4523
75.1868
70.683
74.1814
78.8123
79.3551
74.8052
68.3177
64.6462
66.6757
73.1744
79.1483
78.6186
68.2101
49.4706
28.5974
13.7343
11.3244
23.4248
47.2262
76.7539
105.625
129.391
146.486
157.715
164.979
170.103
174.299
178.216
182.203
186.389
190.521
193.784
194.874
192.41
185.477
173.987
158.631
140.493
120.624
99.8679
79.0374
59.2215
41.9016
28.6402
20.4265
17.0465
16.916
17.5914
16.7806
13.3513
7.79044
1.84841
-2.44635
-3.85748
-2.49835
0.424751
3.51368
6.17895
9.13688
14.0933
22.7753
35.8506
52.3398
69.859
85.5763
97.3964
104.789
108.879
111.81
115.711
121.761
129.735
138.174
145.065
148.725
148.555
145.386
141.259
138.705
139.747
145.022
153.403
162.377
169.055
171.418
169.193
163.895
157.999
153.635
151.498
150.566
148.732
143.967
135.301
123.057
108.276
91.8235
73.8965
54.3769
33.8516
14.5287
0.167808
-5.3512
-0.295012
13.0902
28.5189
37.9429
35.4371
20.8663
1.27101
-11.1932
-4.26812
28.5396
83.9988
149.172
205.7
236.644
232.921
196.554
139.417
78.2116
28.0353
-2.65482
-13.7506
-11.6036
-4.88993
-0.385693
-0.530873
-3.54991
-5.59375
-3.50537
3.26397
12.4249
20.199
23.378
20.9773
14.6932
8.03309
4.64204
6.68227
14.0166
24.4964
35.1062
43.3424
48.1641
50.1405
50.8496
51.9447
54.4013
58.2838
63.0411
68.0531
73.0576
78.2228
83.8849
90.1839
96.8729
103.44
109.456
114.917
120.329
126.462
133.905
142.68
152.163
161.389
169.583
176.642
183.278
190.726
200.146
212.003
225.75
239.944
252.729
262.41
267.815
268.321
263.602
253.4
237.517
216.122
190.126
161.314
131.975
104.1
78.5694
54.8365
31.432
7.14111
-17.7522
-40.9008
-58.473
-66.7259
-63.8406
-51.066
-32.5228
-13.7006
0.633343
8.10181
9.19479
6.44905
2.8955
0.65977
0.402268
1.71688
4.0305
7.30395
12.0537
18.7292
26.9509
35.2323
41.5034
44.2078
43.3265
40.6512
39.0413
41.0023
47.3637
56.8173
66.6061
73.9961
77.7067
78.5017
78.6357
80.5126
85.3461
92.5636
100.217
106.06
108.611
107.636
103.923
98.6787
93.0545
88.052
84.6737
83.9204
86.3672
91.4739
97.1766
100.315
97.9765
89.1629
75.758
62.0142
52.5828
50.0671
53.531
58.9757
61.6729
59.0646
52.4556
46.324
45.4553
51.489
60.9755
66.3159
59.3583
35.8552
-1.62167
-43.9776
-79.0932
-96.8241
-93.0483
-70.8806
-38.7077
-6.30763
18.8773
33.615
38.4307
35.6614
27.4942
15.1594
-0.516769
-17.9433
-34.086
-44.9684
-47.1885
-39.5599
-23.8577
-4.17172
14.8111
29.6712
39.3197
44.8384
48.3829
51.8911
56.2899
61.4553
66.6827
71.2097
74.4883
76.2381
76.5203
75.977
76.0703
78.9272
86.5138
99.3173
115.227
129.457
135.933
129.757
109.622
78.8753
44.536
14.6137
-5.01489
-12.6643
-10.9097
-4.80208
0.714821
2.84335
1.53877
-1.33502
-3.56928
-3.92745
-2.58039
-0.640886
0.719788
0.966322
0.347783
-0.455448
-0.854895
-0.689471
-0.209939
0.198016
0.315895
0.212174
0.127527
0.239354
0.492126
0.623271
0.372282
-0.274367
-0.990935
-1.27476
-0.794873
0.293191
1.31231
1.40958
0.133067
-2.11731
-4.1258
-4.49388
-2.58714
0.782797
3.48923
3.16961
-1.2112
-8.20467
-13.9576
-13.7522
-4.38215
13.8598
36.7532
57.6888
70.512
72.2367
64.2126
51.162
38.6869
30.6818
28.0638
29.365
32.5528
36.7068
42.3456
50.1823
59.2536
65.9509
65.0556
52.6488
29.4589
2.64358
-15.4177
-11.2735
24.1214
91.0272
179.672
272.79
350.925
398.377
407.561
380.405
326.69
260.381
195.431
142.43
106.838
88.9171
84.9485
89.1382
95.5802
99.7886
99.5114
94.7697
87.2784
79.5478
73.979
72.1861
74.6394
80.6255
88.4814
96.0597
101.347
103.086
101.171
96.6138
91.0468
85.9857
82.2517
79.899
78.6838
78.7241
80.8037
85.9423
94.3502
104.399
112.408
113.687
104.54
84.259
55.9717
25.7269
0.150678
-16.1571
-22.123
-19.8325
-12.591
-2.61578
10.2445
28.0039
52.5883
83.6787
117.744
148.98
171.745
183.216
184.799
181.538
179.812
184.508
197.059
215.18
234.249
249.466
257.716
258.372
252.964
244.126
234.472
225.837
218.995
213.706
208.935
203.146
194.707
182.373
165.715
145.261
122.244
98.0167
73.5018
49.0393
24.8102
1.61851
-18.4878
-32.2889
-36.3538
-28.5654
-9.48004
17.25
45.7785
70.0462
86.0325
93.2675
94.8645
95.9742
101.271
112.563
127.611
140.796
145.436
136.858
114.848
84.3224
53.7403
31.7954
23.7327
28.9322
40.925
49.9781
47.2242
28.5755
-3.2918
-39.7727
-69.645
-83.4471
-77.0938
-53.2951
-20.3354
11.1248
31.8297
36.82
26.4947
5.73217
-18.2994
-38.6574
-50.5689
-52.3141
-45.0417
-31.8518
-16.6048
-2.83333
7.0265
12.0271
12.7489
11.0427
9.53639
10.9826
17.5592
30.2682
48.59
70.5185
93.0176
112.82
127.349
135.45
137.643
135.717
131.8
127.268
122.008
114.47
102.539
84.8868
62.1035
36.9854
13.7337
-3.61804
-12.7998
-14.1325
-10.1804
-4.43223
0.290525
2.89227
4.05695
5.3917
8.23025
12.7856
18.0703
22.5278
24.931
25.0102
23.4965
21.6301
20.4724
20.4136
21.0975
21.7321
21.5623
20.2569
18.0637
15.7292
14.2669
14.6649
17.5919
23.1416
30.6799
38.8894
46.0803
50.734
52.0986
50.5559
47.5237
44.854
43.9549
45.0576
47.0296
47.8927
45.8408
40.2718
32.299
24.45
19.6589
20.0098
25.8093
35.3943
45.725
53.4624
56.0629
52.4902
43.3759
30.6956
17.1624
5.53659
-2.01851
-4.44787
-2.09034
3.3842
9.46784
13.6738
14.4926
12.041
8.05135
5.12419
5.53397
10.1521
18.0396
26.9416
34.4404
39.1508
41.3022
42.3923
44.1259
47.283
51.2086
54.254
54.9117
52.9377
49.7231
47.6046
48.4586
52.3984
57.3997
60.168
57.8389
49.5762
37.1531
24.1537
14.2171
9.28927
8.83727
10.4133
11.1823
9.49729
5.63324
1.33332
-1.45612
-1.82346
-0.329924
1.58901
2.82692
3.58809
5.43754
10.2717
18.747
29.1197
37.3524
38.7497
30.5798
14.5127
-2.42538
-9.19831
5.70747
49.6871
122.133
212.992
304.697
377.102
413.781
407.358
361.796
290.737
212.571
144.244
96.2311
70.5053
61.9139
61.9102
62.7237
60.1506
54.0616
46.9261
41.5062
39.0192
38.5489
37.6931
33.8321
25.2679
11.7728
-5.47718
-24.3156
-42.0675
-55.995
-63.7652
-63.9873
-56.7107
-43.6218
-27.703
-12.353
-0.284899
7.30285
10.8894
12.08
12.6748
13.8696
15.9729
18.6726
21.5514
24.4513
27.4601
30.6134
33.6237
35.925
37.0626
37.1749
37.1966
38.5739
42.602
49.7643
59.481
70.4347
81.2815
91.3231
100.736
110.237
120.409
131.107
141.327
149.613
154.774
156.504
155.544
153.291
151.034
149.233
147.206
143.407
136.179
124.634
109.231
91.7567
74.6864
60.2206
49.4354
41.9579
36.3133
30.7594
24.1899
16.6664
9.34657
3.88522
1.62855
2.9765
7.1585
12.4564
16.7471
18.1871
15.8902
10.4612
4.21651
0.87774
4.59693
18.4202
42.6586
73.9017
105.346
128.643
136.744
126.628
100.662
65.8803
31.3856
4.98684
-9.44353
-12.7637
-9.29802
-4.29451
-1.4301
-1.53004
-2.92945
-3.02457
-0.0169149
6.09663
13.6848
20.5025
24.8534
26.2202
25.1155
22.4166
18.7209
14.1589
8.72732
2.82345
-2.48166
-5.70948
-5.68613
-2.28598
3.26689
8.77433
11.9647
11.4681
7.38127
1.17822
-4.91992
-8.74454
-8.75924
-4.23761
4.86728
18.1085
34.5838
52.8294
70.7714
85.9742
96.2621
100.52
99.2854
94.761
90.1246
88.3566
91.065
97.8232
106.319
113.261
115.684
112.116
103.185
91.4432
80.52
73.9277
73.9676
81.1007
93.9596
109.927
126.006
139.64
149.212
154.152
154.764
151.971
147.125
141.879
138.002
137.005
139.603
145.211
151.792
156.268
155.443
147.115
130.893
108.351
82.4698
56.6358
33.6862
15.3914
2.51229
-4.75057
-6.27733
-1.84832
8.62214
24.5847
44.4107
65.3362
83.9707
97.2843
103.734
104.039
101.157
99.2812
102.092
110.919
123.675
135.205
139.136
130.581
108.502
76.5913
42.114
13.1434
-4.58071
-9.73286
-5.50905
2.15918
7.29645
6.16008
-1.83144
-14.622
-28.8496
-41.1031
-48.5625
-49.0826
-41.1937
-24.4227
0.116542
29.3732
58.8181
83.8367
101.513
111.836
117.565
122.674
130.21
140.729
152.205
161.412
165.906
165.38
161.624
157.191
153.706
150.953
147.301
141.161
132.447
122.978
115.456
111.549
110.283
107.859
99.2591
81.0396
53.9584
24.0959
1.74684
-1.64193
22.6263
77.2044
157.199
250.948
342.776
416.824
460.825
468.818
442.199
388.954
321.394
253.037
195.43
155.718
135.57
131.684
137.674
146.658
153.646
156.863
157.578
158.615
162.326
169.05
176.848
182.626
184.027
181.002
176.107
173.246
175.45
182.871
192.131
197.481
193.273
176.54
148.409
113.678
78.8104
49.3831
28.1919
14.7887
6.4419
-0.160479
-7.38112
-15.9269
-25.0767
-33.4761
-39.9535
-43.9658
-45.5958
-45.2809
-43.5215
-40.7168
-37.1292
-32.8999
-28.0695
-22.6236
-16.6108
-10.3174
-4.39373
0.213982
2.59169
2.34797
0.021402
-2.85872
-4.17532
-1.96685
4.80696
15.8263
29.4927
43.4727
55.438
63.6875
67.4471
66.834
62.6181
55.9423
48.0899
40.2918
33.5296
28.3383
24.6848
22.0325
19.6273
16.9132
13.8717
11.0853
9.45501
9.70038
11.9106
15.4053
19.003
21.5678
22.5488
22.2293
21.5645
21.7119
23.5131
27.1935
32.3974
38.483
44.8608
51.1655
57.1838
62.6401
67.051
69.8273
70.6367
69.841
68.7029
69.1274
72.9342
80.9539
92.414
105.016
115.781
122.318
123.876
121.587
117.693
114.127
111.219
107.305
99.5576
85.6541
65.3901
41.2976
17.8492
-0.3919
-10.7114
-13.2437
-10.5331
-5.96994
-2.03668
0.643013
2.98858
6.20258
10.455
14.4028
15.884
13.3683
7.24371
0.0858352
-4.36054
-2.99529
5.00238
17.6241
30.8936
40.7085
44.7181
43.2916
39.1282
35.7696
35.8185
39.7745
46.0319
51.9639
55.4713
56.1657
55.5886
56.3805
60.8561
69.726
81.6089
93.5687
102.393
105.977
104.154
98.5903
91.8606
86.1673
82.3445
79.5941
76.0313
69.7251
59.7091
46.4895
31.8597
18.1772
7.50262
1.02418
-1.00714
1.097
6.97037
16.4845
29.6447
46.1865
65.1889
85.0391
103.878
120.34
134.157
146.223
157.968
170.332
182.864
193.543
199.479
198.242
189.139
173.768
155.532
138.334
125.106
116.854
112.623
110.244
107.379
102.301
94.1668
82.8518
68.7157
52.5523
35.7217
20.1889
8.16848
1.33808
-0.0376989
2.48638
6.01574
7.62509
5.90725
1.91638
-1.1149
0.716025
9.9331
26.1316
45.7653
63.4441
74.138
75.2211
67.3825
54.0301
39.5792
27.5453
19.3765
14.4884
11.2891
8.4756
5.81856
4.03871
3.967
5.62506
7.89738
9.07438
7.96012
4.81768
1.44337
0.142301
2.06935
5.90049
7.78509
2.94659
-11.5879
-34.3782
-58.4925
-72.8213
-65.6093
-28.9741
37.3823
124.865
217.778
297.704
348.928
362.998
340.828
291.753
230.048
170.331
123.526
94.6792
83.0678
84.1069
91.9804
101.846
110.921
118.409
124.745
130.796
137.388
145.175
154.575
165.549
177.253
187.852
194.845
195.947
190.173
178.536
163.84
149.542
138.226
130.476
124.823
118.781
110.413
99.4895
87.5782
77.0171
69.4088
64.5721
60.6074
55.0553
46.4439
35.2724
23.8046
14.7725
9.7645
8.29113
8.12537
6.75248
3.07139
-1.69889
-4.51904
-2.22968
6.477
19.9462
33.997
43.7472
45.8996
40.3019
29.9858
19.6981
13.716
14.0554
19.8963
28.3581
36.0612
40.5992
41.2317
38.6436
34.1362
28.8369
23.3494
17.8803
12.5631
7.64535
3.41356
0.00104261
-2.66012
-4.62188
-5.59201
-4.82841
-1.49502
4.62103
12.4829
19.8019
23.8801
22.9683
17.3743
9.56499
3.02953
0.419645
2.00549
5.40308
6.84492
3.35615
-5.38277
-16.5823
-25.6127
-28.3233
-23.1375
-11.7906
1.63509
12.7663
18.9235
20.0151
18.0325
15.6382
14.757
15.9107
18.4626
21.3795
23.9156
25.8436
27.2785
28.4169
29.4771
30.8388
33.1217
36.9411
42.3521
48.3329
52.7713
53.1755
47.8625
36.9925
22.8111
8.86069
-1.48761
-6.43083
-6.33985
-3.3059
0.056426
1.86299
1.62988
0.115765
-1.42463
-2.06061
-1.62124
-0.595992
0.315967
0.663706
0.440252
-0.0344971
-0.394071
-0.456122
-0.274019
-0.0253937
0.14494
0.209234
0.228502
0.261311
0.296074
0.260809
0.0960054
-0.174178
-0.435074
-0.552015
-0.471647
-0.280467
-0.171253
-0.327579
-0.792928
-1.40817
-1.8682
-1.88391
-1.37418
-0.584574
-0.0464722
-0.345988
-1.74979
-3.81549
-5.17389
-3.67532
2.99316
16.2989
35.7816
58.3973
78.7684
90.534
88.4973
70.7855
40.0528
3.03682
-31.5267
-55.8428
-65.6029
-61.0454
-46.1549
-26.5377
-7.11078
9.2972
21.9712
31.3267
37.7968
41.3708
41.9677
40.1617
37.5031
35.9869
36.8883
39.732
42.1941
41.189
34.6183
22.7694
8.48554
-4.06808
-11.3826
-12.2243
-8.00923
-1.79083
3.48579
6.43724
7.6323
8.83141
11.6563
16.5273
22.4381
27.5729
30.2814
29.8074
26.4325
21.1114
14.9627
8.95309
3.87193
0.427361
-0.769543
0.586364
4.2472
9.39068
14.9652
20.2631
25.3581
31.0559
38.2923
47.2915
57.0236
65.3836
70.1093
69.9806
65.6096
59.302
53.9766
51.6834
52.5384
54.7101
55.532
53.1771
47.9691
42.537
40.5962
44.88
55.2623
68.1343
77.582
78.0635
67.5099
49.413
32.7481
29.4084
49.8988
98.8772
172.364
257.904
337.844
394.613
416.084
399
349.303
279.451
203.995
135.277
80.7737
42.7031
19.4516
7.68989
4.07059
5.93916
11.2021
17.9286
24.2235
28.5206
30.0264
28.9036
25.9833
22.1683
17.9308
13.2422
7.94586
2.2405
-3.14843
-7.3033
-9.74768
-10.9028
-11.9624
-14.1702
-17.9242
-22.3183
-25.4937
-25.6566
-22.1562
-15.9284
-8.98635
-3.24523
0.583329
3.30984
6.57235
11.5624
18.0076
24.1204
27.6289
27.3113
24.099
21.023
21.9451
29.732
44.8751
65.3172
87.5748
108.523
126.861
143.479
160.565
179.982
201.823
223.911
242.52
253.927
256.026
249.222
236.2
220.762
206.294
194.609
185.628
177.928
169.795
160.178
149.106
137.45
126.255
116.094
106.806
97.6974
88.0495
77.5664
66.511
55.4862
45.0494
35.4334
26.5498
18.2405
10.578
3.98216
-0.94498
-3.77276
-4.55815
-3.91315
-2.75826
-1.88562
-1.57437
-1.48298
-0.900787
0.754112
3.45126
6.36593
8.1657
7.70318
4.80786
0.734047
-2.10218
-1.15505
4.82735
14.7101
24.95
30.9691
29.5265
21.0071
10.3283
5.63889
15.0213
42.5267
85.4448
134.345
176.197
199.379
198.351
175.844
141.542
107.881
84.9573
76.8366
80.8025
89.5855
95.2442
92.7594
81.7781
66.0132
50.9516
41.1834
38.6
42.0832
48.5234
54.4652
57.5707
57.3528
55.0456
52.8236
52.7504
55.8443
61.5566
67.8332
71.7689
70.6832
63.2603
50.2982
34.6841
20.4872
11.4525
9.505
13.9491
21.7887
29.0865
32.7662
32.0095
28.5611
25.7765
26.8689
33.2222
43.608
54.6961
62.5937
64.6412
60.581
52.5505
43.9551
37.8222
35.465
36.0807
37.4101
37.0556
33.7599
28.0135
21.7374
17.2562
16.1129
18.3197
22.3914
26.1044
27.5748
26.109
22.4217
18.1466
14.9254
13.5663
13.7074
14.1373
13.5676
11.406
8.09085
4.811
2.79517
2.60938
3.88861
5.65626
7.01449
7.75258
8.46993
10.1236
13.2893
17.628
21.9346
24.7778
25.3504
23.9878
21.9998
20.8803
21.363
22.9102
23.9823
22.9694
19.2552
13.7762
8.7033
6.35959
7.92554
12.6244
17.8582
20.2919
17.403
8.76804
-3.55675
-15.8051
-24.149
-26.5233
-23.7742
-19.489
-18.3846
-23.7792
-35.1868
-47.2007
-50.4556
-34.6564
7.26869
75.4751
161.59
250.12
322.66
363.524
364.749
328.605
266.66
195.799
132.741
89.1119
68.7786
68.1761
79.1188
92.6995
102.619
106.744
106.61
105.473
106.099
109.362
114.188
118.614
121.182
121.778
121.477
121.525
122.165
122.06
118.741
109.866
94.6232
74.461
52.74
33.4497
19.6532
12.422
10.7195
12.1637
14.1775
14.9292
13.7039
10.7247
6.71886
2.54723
-0.965684
-3.07894
-3.21155
-1.09976
3.07773
8.78413
15.4779
23.0675
32.1441
43.7345
58.6062
76.4911
95.7466
113.792
128.223
138.068
144.475
150.353
159.048
172.65
190.775
210.47
227.315
237.238
238.179
230.877
218.456
205.052
194.119
187.152
183.287
179.885
173.77
162.602
145.862
125.11
103.449
84.4331
70.8067
63.5535
61.5891
62.2204
62.1965
58.9493
51.5417
40.9611
29.664
20.5839
16.0209
16.8466
22.2959
30.354
38.5252
44.6699
47.632
47.5038
45.5036
43.5263
43.4764
46.5367
52.5772
59.9436
65.8107
67.1129
61.7968
49.913
34.009
18.5068
8.17846
6.28698
13.1993
26.1378
40.255
50.6027
54.1322
50.8333
43.5198
36.4116
33.2086
35.5522
42.5191
51.2598
58.3521
61.1757
58.7183
51.6047
41.5487
30.6424
20.8281
13.6478
10.1299
10.6235
14.5478
20.2471
25.2346
26.9538
23.8516
16.2537
6.4974
-1.90461
-5.7776
-3.75188
3.08822
11.7503
18.811
22.0475
21.3648
18.5727
16.22
16.1979
18.8904
23.249
27.5902
30.5258
31.4612
30.4873
27.9403
24.0912
19.2432
14.1101
10.0512
8.78334
11.5728
18.3507
27.3716
35.7732
40.8504
41.3663
38.1452
33.5835
30.3593
30.0958
32.7468
37.0005
41.3619
45.1639
48.8479
53.3643
59.1412
65.3591
70.0747
71.178
67.6176
60.1365
51.0484
43.1662
38.505
37.4961
39.1168
41.7678
44.2963
46.5198
48.9848
52.2184
56.0683
59.6498
61.9731
62.8209
63.213
65.0182
69.8232
77.7092
86.7449
93.6529
95.4176
90.9906
82.0938
72.5639
66.4848
66.0684
70.4385
76.0108
78.2912
74.1323
63.2366
48.1417
32.7856
20.5442
12.8728
9.24345
8.22179
8.80919
11.0379
15.3648
21.3094
26.4479
26.8252
19.0342
3.07235
-15.6915
-26.9695
-18.8687
17.0175
80.9674
163.253
246.248
309.951
338.784
326.875
279.739
211.796
140.973
82.6635
45.3846
29.4936
28.9474
34.9084
39.5082
38.3438
31.0624
20.2687
9.58564
1.84292
-1.91006
-2.3665
-1.17306
0.0768
0.554123
0.342545
0.0799462
0.391341
1.46278
2.9668
4.31591
5.03243
4.98443
4.35938
3.44016
2.38367
1.18945
-0.104307
-1.14624
-1.15779
0.857193
5.62185
13.0646
22.088
30.8233
37.3118
40.3033
39.7875
36.9974
33.898
32.4244
33.8319
38.4153
45.6323
54.4655
63.7927
72.6216
80.1962
86.0733
90.238
93.2093
95.9906
99.752
105.289
112.499
120.202
126.495
129.551
128.478
123.763
117
110.004
103.79
97.9935
91.1368
81.6236
68.9451
54.3846
40.7506
31.1875
27.6315
29.7174
34.7438
38.7767
38.3892
32.2038
21.5008
9.6138
0.425983
-3.31475
-1.09144
5.32251
12.7852
18.201
19.7728
17.5772
13.3033
9.36548
7.83401
9.63183
14.2753
20.1796
25.336
28.0666
27.5881
24.2261
19.2594
14.4851
11.6558
11.9487
15.603
21.8142
28.9203
34.85
37.7302
36.4872
31.2438
23.3485
14.9804
8.43128
5.31364
6.00358
9.55605
14.1406
17.8191
19.3325
18.561
16.4789
14.6568
14.5617
16.9656
21.6908
27.7429
33.7235
38.3311
40.778
41.0157
39.7353
38.1498
37.602
39.0855
42.8294
48.1258
53.5324
57.4379
58.7836
57.6087
55.1166
53.1687
53.4066
56.4234
61.4171
66.5298
69.7285
69.7935
66.9196
62.6299
59.0543
57.9339
59.8311
63.8946
68.2547
70.8366
70.2399
66.3439
60.4429
54.8765
52.2546
54.474
61.8003
72.3488
82.2846
86.8898
82.3187
67.4594
45.0694
21.4567
4.50971
0.658849
12.0144
35.0593
61.7153
82.5223
90.5916
84.4958
68.6715
51.0982
39.3839
37.2138
42.9291
50.8707
54.6554
50.5567
39.1911
24.7304
12.285
5.08967
3.1268
3.85675
4.41095
3.73501
3.27413
5.78002
13.0561
24.1648
35.3501
41.8546
40.5976
32.0994
20.4418
11.2109
8.56365
13.0741
21.5506
28.8666
30.7132
25.7304
15.9272
5.34262
-2.12032
-4.41236
-1.76374
4.15138
11.5417
19.3851
27.4012
35.3528
42.3923
47.0897
48.2241
45.7944
41.4549
37.9048
37.4531
40.5963
45.5436
49.1096
48.5602
43.352
35.6911
29.4882
28.2405
33.0562
42.0083
51.2552
57.3067
59.0841
58.4738
58.9231
62.81
69.1549
73.215
68.5635
50.8761
21.5602
-10.8138
-32.4293
-29.0816
7.9053
77.2427
166.767
256.65
325.602
357.675
347.086
299.341
228.485
151.832
84.3558
34.8327
4.85247
-9.4525
-14.1921
-14.635
-13.5192
-11.1615
-6.85239
-0.485002
6.58695
11.9168
13.2758
10.0916
4.127
-1.07245
-1.76815
4.10756
15.753
29.5977
40.7053
44.8475
40.2991
28.548
13.6431
0.53407
-6.80931
-6.68089
0.14402
11.1963
23.6089
35.2774
45.4144
54.3946
63.1322
72.4016
82.4429
92.9718
103.48
113.584
123.214
132.565
141.894
151.323
160.769
170.057
179.108
188.101
197.472
207.763
219.368
232.324
246.224
260.3
273.6
285.177
294.207
300.04
302.227
300.579
295.287
287.011
276.852
266.112
255.887
246.63
237.91
228.514
216.904
201.843
182.905
160.648
136.36
111.569
87.5604
65.1688
44.9026
27.2619
12.9884
3.03917
-1.73912
-1.0518
4.5584
13.7689
24.8583
36.1953
46.5669
55.1982
61.5343
65.0171
65.0884
61.4692
54.5408
45.5281
36.27
28.6094
23.694
21.5751
21.3502
21.7875
22.086
22.3375
23.4226
26.4028
31.7574
38.9034
46.2745
51.928
54.3773
53.2482
49.4685
44.9387
41.8501
41.9314
45.8832
53.1546
62.0987
70.447
75.9711
77.1494
73.6304
66.3252
57.0803
48.0558
41.073
37.2072
36.759
39.5036
44.952
52.378
