-2e-006
-2.3e-005
-7e-005
-0.00015
-0.000272
-0.000445
-0.000658
-0.000883
-0.001083
-0.001216
0.002704
0.035796
0.069063
0.086905
0.081973
0.056365
-0.004151
-0.090229
-0.174385
-0.203596
-0.120395
0.071745
0.310794
0.508188
0.563422
0.400655
-0.014333
-0.623444
-1.23809
-1.56572
-1.27323
-0.089448
2.11958
5.3072
9.2289
13.435
17.3612
20.4181
22.1769
22.5174
21.6417
20.0404
18.3896
17.3907
17.5471
19.005
21.4569
24.2304
26.4901
27.5085
26.9265
24.8652
21.9119
19.0224
17.2253
17.2946
19.4821
23.4525
28.3779
33.167
36.8003
38.5632
38.1512
35.8035
32.1782
28.131
24.4549
21.7565
20.3642
20.3115
21.3852
23.1303
24.9325
26.1898
26.4417
25.4549
23.263
20.1993
16.9067
14.1902
12.8203
13.2575
15.473
18.9681
22.9131
26.3314
28.402
28.7274
27.4658
25.2865
23.0785
21.5649
21.0513
21.3549
21.9181
22.0768
21.3338
19.6399
17.4477
15.5694
14.8854
15.9372
18.6463
22.3955
26.1747
28.8594
29.4805
27.504
22.9917
16.5983
9.43829
2.81832
-1.95906
-3.70818
-1.54151
4.93454
15.5145
29.344
45.0395
60.9094
75.2554
86.6755
94.2852
97.9222
98.08
95.6975
91.8203
87.3167
82.7733
78.4508
74.3781
70.4262
66.4374
62.3126
58.0412
53.6298
49.0342
44.2021
39.1383
33.9404
28.8517
24.1825
20.2405
17.2895
15.4752
14.7978
15.0751
15.99
17.2271
18.5126
19.6588
20.5233
20.9604
20.8969
20.315
19.2619
17.8229
16.088
14.2103
12.4116
10.9236
9.89847
9.38895
9.41414
9.96235
10.9711
12.3677
14.0018
15.6935
17.2527
18.4803
19.1642
19.1101
18.2926
16.8524
15.1294
13.5171
12.3823
12.0111
12.5296
13.9015
15.8989
18.1892
20.4525
22.4391
23.9832
24.9671
25.2798
24.8671
23.7421
22.0245
19.8955
17.5945
15.4397
13.7604
12.7999
12.6659
13.2296
14.2427
15.4106
16.464
17.2107
17.5205
17.4162
17.0485
16.6128
16.3163
16.2834
16.5985
17.3212
18.4898
20.0786
21.9497
23.9285
25.8127
27.3838
28.4378
28.7615
28.2888
27.1325
25.6032
24.1222
23.1212
22.9787
23.8912
25.7972
28.2836
30.6876
32.2685
32.4406
30.9658
28.0056
24.0405
19.8303
16.1928
13.7913
12.9472
13.5644
15.2347
17.4214
19.6087
21.3787
22.4805
22.8834
22.7607
22.3433
21.8783
21.539
21.3858
21.4214
21.6062
21.8389
21.9702
21.892
21.6374
21.3519
21.2946
21.7217
22.8147
24.6057
26.863
29.097
30.636
30.8055
29.2219
25.9532
21.565
16.9225
13.061
10.849
10.7375
12.5986
15.7126
19.0953
21.7948
23.1906
23.111
21.8399
19.9371
18.0225
16.5852
15.8511
15.739
16.056
16.7386
17.8636
19.6728
22.3677
25.992
30.2994
34.7036
38.3152
40.1164
39.2646
35.392
28.7508
20.2217
11.2345
3.47554
-1.37248
-1.94968
2.40914
11.5418
24.4576
39.5558
54.9933
69.0139
80.261
88.0438
92.4247
94.0415
93.8098
92.6366
91.1249
89.5572
87.9211
86.0144
83.6003
80.6158
77.2082
73.7039
70.5039
67.7964
65.5818
63.6271
61.5292
58.7806
54.9456
49.8076
43.5089
36.5844
29.8429
24.1758
20.3004
18.6936
19.3337
21.7291
24.9591
27.975
29.8758
30.1648
28.8142
26.2289
23.0971
20.2103
18.2245
17.495
18.0211
19.5053
21.513
23.6157
25.4447
26.7212
27.2728
27.0123
25.9866
24.2996
22.1023
19.6137
17.1723
15.161
13.9012
13.5484
14.0175
15.0665
16.3625
17.5184
18.198
18.2081
17.6033
16.6374
15.7255
15.2118
15.3503
16.2425
17.8023
19.7037
21.4677
22.5685
22.6548
21.6793
19.926
17.9886
16.5866
16.4208
17.914
21.0181
25.1742
29.4044
32.6654
34.1565
33.4963
30.8748
26.9355
22.6356
18.919
16.4601
15.5002
15.8166
16.9112
18.1811
19.077
19.171
18.268
16.4445
14.0662
11.7172
10.099
9.88034
11.5701
15.3198
20.7574
26.9307
32.5348
36.26
37.1816
35.0389
30.2935
24.0142
17.595
12.3728
9.29553
8.67601
10.2752
13.5192
17.7309
22.2524
26.4927
29.9115
32.061
32.5911
31.3337
28.3987
24.2553
19.7592
16.0062
13.9843
14.3226
16.9995
21.4109
26.5459
31.2162
34.3704
35.3365
34.0147
30.8554
26.6823
22.4874
19.1738
17.4407
17.6625
19.8281
23.5129
27.9843
32.3819
35.8865
37.85
37.8813
35.9053
32.2122
27.4441
22.4659
18.1761
15.3902
14.6779
16.2395
19.7959
24.5468
29.3855
33.1086
34.7484
33.8383
30.5047
25.3957
19.5864
14.3223
10.6715
9.32974
10.4476
13.7419
18.6205
24.2809
29.838
34.3941
37.1836
37.732
35.8345
31.6086
25.4847
18.2311
10.8544
4.46539
0.0449
-1.63575
-0.082681
4.90106
13.2243
24.4433
37.79
52.275
66.7991
80.2562
91.6535
100.26
105.733
108.139
107.84
105.343
101.155
95.7626
89.6273
83.204
76.9164
71.146
66.1886
62.1662
58.9372
56.0555
52.9002
48.9349
43.9234
38.0585
31.9954
26.6074
22.7846
21.1464
21.76
24.1014
27.1353
29.644
30.6117
29.4659
26.2407
21.4996
16.1978
11.4646
8.27044
7.19287
8.30734
11.2528
15.3556
19.7736
23.6322
26.1797
26.9311
25.7793
23.0392
19.3741
15.6324
12.7084
11.2823
11.5847
13.2032
15.2054
16.4554
16.0449
13.6656
9.81451
5.68583
2.88012
2.82956
6.26968
12.8697
21.2188
29.2711
34.9816
36.9564
34.8782
29.5476
22.6746
16.288
12.0491
10.7583
12.1228
15.0195
17.9407
19.5697
19.1825
16.867
13.4392
10.1039
7.99531
7.79659
9.51373
12.5435
15.9391
18.719
20.1588
19.9831
18.3988
16.0034
13.5475
11.6694
10.7083
10.6791
11.3448
12.3382
13.2906
13.9203
14.1392
14.037
13.8417
13.7198
13.7188
13.7986
13.8589
13.7956
13.5202
13.005
12.3153
11.5912
11.0055
10.6818
10.5954
10.6534
10.7917
11.0463
11.5703
12.5966
14.4355
17.3208
21.2717
25.9298
30.5446
34.191
36.0331
35.618
33.0197
28.8784
24.2746
20.4335
18.3427
18.4458
20.4742
23.5634
26.6093
28.6203
29.0262
27.8157
25.5174
22.9995
21.1404
20.4897
21.0814
22.4747
24.0024
25.0434
25.2595
24.669
23.6512
22.7959
22.6725
23.5417
25.1937
27.0454
28.392
28.6656
27.6283
25.493
22.86
20.562
19.3662
19.582
20.9699
22.7614
24.0309
24.0297
22.4909
19.7654
16.7665
14.646
14.3885
16.3398
20.005
24.2196
27.6031
29.1
28.3807
25.959
23.0626
21.1683
21.4091
24.0613
28.2904
32.4474
34.6645
33.557
28.7286
20.9045
11.8144
3.72209
-1.20046
-1.43243
3.51721
13.1347
26.2284
41.3429
57.046
72.122
85.6798
97.1448
106.242
112.874
117.037
118.864
118.68
116.966
114.219
110.8
106.896
102.565
97.8223
92.6182
86.9837
81.0243
75.0154
69.3277
64.3332
60.3103
57.4135
55.6783
55.0298
55.22
55.7844
56.1403
55.7458
54.2551
51.602
47.9816
43.8884
39.9946
36.9343
35.096
34.3688
34.2394
34.0031
33.0705
31.1982
28.5783
25.8568
23.9517
23.7193
25.6337
29.4891
34.4409
39.2215
42.6126
43.7103
42.162
38.2863
32.9723
27.4763
23.0199
20.3835
19.7896
20.9129
23.0485
25.2824
26.7188
26.7526
25.2603
22.6563
19.7584
17.517
16.7832
18.1229
21.6541
26.9619
33.1358
38.9947
43.4466
45.7827
45.8141
43.7978
40.377
36.4149
32.7387
29.927
28.1254
27.1503
26.6695
26.365
26.097
25.8449
25.7491
26.082
27.1194
29.0029
31.6314
34.6651
37.6436
40.0762
41.531
41.679
40.4131
37.8891
34.5599
31.0603
28.0277
25.9578
25.1384
25.5668
26.9609
28.7426
30.2647
31.0419
30.8955
30.0144
28.8287
27.8428
27.5104
28.0423
29.3201
30.8676
32.0177
32.1885
31.1061
28.8809
25.9112
22.7177
19.8553
17.7418
16.5432
16.1131
16.1333
16.3271
16.5944
17.0079
17.7089
18.816
20.3589
22.2561
24.3197
26.2442
27.7536
28.7243
29.2105
29.3894
29.4016
29.2814
29.0246
28.6707
28.3407
28.2792
28.852
30.489
33.5159
37.993
43.5705
49.4842
54.805
58.6528
60.4435
59.9497
57.3531
53.1885
48.1789
43.0911
38.5229
34.8306
32.2202
30.8022
30.5654
31.3262
32.7355
34.3029
35.5026
35.8727
35.1248
33.2363
30.5422
27.6285
25.1063
23.3372
22.3078
21.6878
21.1204
20.4088
19.7338
19.6486
20.9166
24.148
29.3896
35.8561
41.9625
45.7871
45.739
41.1295
32.4869
21.4743
10.5308
2.24643
-1.38059
0.534232
7.68313
18.8137
32.2953
46.616
60.6863
73.864
85.8495
96.4764
105.479
112.378
116.605
117.788
116.052
112.058
106.857
101.542
97.0028
93.7171
91.6636
90.3416
89.0523
87.1947
84.5039
81.0302
77.062
72.954
69.0162
65.4527
62.3542
59.6822
57.3415
55.2226
53.251
51.3194
49.2331
46.6816
43.4077
39.358
34.8085
30.3682
26.8214
24.9972
25.5429
28.6693
33.9705
40.4218
46.6556
51.38
53.6836
53.2402
50.3883
45.9738
41.1468
36.9577
34.0589
32.4703
31.6985
31.039
29.8828
27.9674
25.468
22.9772
21.3315
21.2669
23.0621
26.3225
30.1602
33.489
35.3659
35.2963
33.3517
30.1835
26.8099
24.1757
22.7854
22.5218
22.7544
22.6989
21.7597
19.8016
17.2212
14.8747
13.8047
14.836
18.237
23.5458
29.7876
35.7981
40.5938
43.6279
44.8314
44.6023
43.5918
42.4284
41.4479
40.5961
39.5784
38.1263
36.1796
33.9792
32.0067
30.8494
31.0034
32.6681
35.5987
39.1217
0
-2e-006
-2.2e-005
-9e-005
-0.000231
-0.000461
-0.000779
-0.00117
-0.001595
-0.001978
-0.002236
0.000801
0.032483
0.108203
0.188259
0.215549
0.147917
-0.010864
-0.213313
-0.394801
-0.448299
-0.283619
0.138623
0.72067
1.2057
1.29764
0.788455
-0.309246
-1.71445
-2.93971
-3.37475
-2.44685
0.188609
4.55769
10.268
16.6812
23.0909
28.8964
33.6906
37.2882
39.6799
41.0011
41.4377
41.1888
40.4298
39.3381
38.1233
36.9796
36.0059
35.1206
34.1075
32.7144
30.7787
28.357
25.7184
23.3357
21.712
21.21
21.8736
23.3462
25.0609
26.4464
27.1531
27.1542
26.6384
25.8805
25.0978
24.3698
23.6351
22.7829
21.8903
21.3852
22.0828
24.8522
30.1994
37.9912
47.3118
56.5498
63.7031
66.8169
64.5585
56.6735
44.1351
29.0198
13.9713
1.75328
-5.2795
-5.62617
1.08528
13.9863
31.2024
50.3149
68.845
84.698
96.4878
103.715
106.792
106.826
105.202
103.158
101.517
100.646
100.507
100.814
101.138
101.118
100.551
99.4479
97.9342
96.1006
94.0441
91.8867
89.7848
87.897
86.2906
84.8977
83.5674
82.0825
80.225
77.8185
74.7763
71.2225
67.4895
63.9396
60.8102
58.1695
55.9869
54.1832
52.6857
51.4082
50.2775
49.2606
48.2956
47.26
45.8698
43.8206
40.9569
37.3822
33.4699
29.7046
26.5698
24.4638
23.6157
23.999
25.3432
27.2591
29.394
31.5318
33.554
35.353
36.7346
37.5325
37.659
37.1574
36.2128
35.1813
34.5417
34.7798
36.1877
38.6515
41.6715
44.4891
46.3627
46.7392
45.3736
42.3809
38.2826
33.8503
29.912
27.1219
25.8282
26.0876
27.6945
30.1969
32.9398
35.1904
36.386
36.2928
35.0927
33.2728
31.5386
30.6558
31.15
33.1373
36.1496
39.2505
41.3918
41.7731
40.0801
36.5811
32.0401
27.5633
24.254
22.9113
23.7313
26.3145
29.8577
33.4083
36.1113
37.3434
36.8012
34.6105
31.2716
27.5004
24.0218
21.4142
20.0439
20.0061
21.1298
22.9217
24.7361
25.9797
26.3538
25.914
25.0217
24.2297
24.1586
25.3121
27.926
31.8025
36.3691
40.868
44.562
46.8805
47.4895
46.329
43.6597
40.0434
36.2433
32.974
30.8321
30.1985
31.1362
33.3804
36.3216
39.1329
41.0547
41.5825
40.5821
38.3096
35.2532
32.1099
29.5483
28.0469
27.7482
28.4267
29.6482
30.9359
31.8874
32.1947
31.6784
30.3336
28.3161
25.9116
23.4105
21.0669
19.1739
18.0347
17.934
19.0123
21.2078
24.2398
27.706
31.1156
33.9377
35.7552
36.4438
36.283
35.9272
36.1751
37.7143
40.9194
45.6536
51.1246
55.9618
58.475
57.1461
51.1526
40.7231
27.1722
12.7401
0.148343
-7.93867
-9.54392
-3.88407
8.46421
25.7992
45.7455
65.764
83.6747
97.9329
107.878
113.683
116.079
116.075
114.59
112.359
109.913
107.565
105.436
103.503
101.716
100.045
98.544
97.2424
96.1089
95.1294
94.3059
93.6105
92.9624
92.1983
91.123
89.6148
87.6303
85.1534
82.1669
78.7044
74.854
70.7382
66.444
62.0257
57.5773
53.3233
49.5882
46.7309
44.9869
44.4581
45.0406
46.4018
47.9609
48.9757
48.736
46.849
43.3527
38.674
33.5102
28.7028
25.0648
23.1495
23.0669
24.4658
26.6629
28.9159
30.6006
31.3866
31.2039
30.3066
29.1917
28.415
28.3856
29.2245
30.7643
32.6651
34.5579
36.1081
37.0696
37.3918
37.2209
36.785
36.2335
35.5299
34.4711
32.8496
30.5755
27.7635
24.7268
22.0346
20.3635
20.2663
21.9231
24.9896
28.6948
32.0799
34.2916
34.8396
33.6608
31.2188
28.3265
25.8849
24.5603
24.538
25.5983
27.2479
28.9579
30.2888
30.9239
30.7931
30.0165
28.8286
27.4561
26.0539
24.7431
23.6746
22.984
22.7219
22.7503
22.8055
22.583
21.8569
20.5657
18.856
17.0839
15.7854
15.5032
16.5547
18.8534
21.976
25.285
28.1217
29.9079
30.3258
29.3357
27.2256
24.5008
21.718
19.303
17.5448
16.6273
16.6246
17.4997
19.0867
21.1504
23.4256
25.6617
27.6358
29.0992
29.8909
29.9838
29.4541
28.4787
27.1224
25.4621
23.5845
21.6354
19.8688
18.5774
18.1423
18.972
21.3563
25.2785
30.251
35.3807
39.6082
41.9869
41.9434
39.4745
35.2163
30.3121
26.0508
23.4223
22.7472
23.6129
25.1177
26.2535
26.2833
24.981
22.7822
20.5885
19.4093
19.8967
22.0808
25.3555
28.8107
31.6694
33.6113
34.9026
36.3088
38.794
43.0741
49.1408
56.0538
62.1479
65.5057
64.6062
58.786
48.4445
35.0073
20.6469
7.7297
-1.65627
-6.26637
-5.72524
-0.40816
8.81696
20.8385
34.4767
48.6094
62.2659
74.6463
85.0709
92.9779
98.0009
100.105
99.6388
97.1931
93.4402
89.0088
84.4438
80.174
76.5122
73.6594
71.739
70.8556
71.053
72.1611
73.7089
75.0242
75.4162
74.3939
71.8478
68.0754
63.7066
59.5693
56.4583
54.8513
54.7186
55.5539
56.6061
57.1784
56.8073
55.3106
52.8285
49.7683
46.6615
43.9675
41.9185
40.4679
39.4299
38.5766
37.6842
36.5267
34.9821
33.0506
30.9106
28.8475
27.143
26.0011
25.5559
25.8454
26.7542
27.9973
29.2038
30.0511
30.4412
30.5095
30.5451
30.9134
31.9889
34.0301
37.0414
40.6791
44.3261
47.2737
48.9835
49.1762
47.9034
45.4952
42.5467
39.7395
37.649
36.5568
36.408
36.9097
37.7022
38.4777
39.0513
39.3656
39.5117
39.6917
40.0818
40.6802
41.3011
41.7358
41.8678
41.6903
41.3196
40.8999
40.5947
40.5694
40.8133
41.131
41.2345
40.8643
39.964
38.7136
37.4303
36.4526
36.0954
36.5617
37.8122
39.5345
41.2452
42.4719
42.9805
42.8646
42.473
42.2738
42.7473
44.2209
46.6769
49.7017
52.5792
54.5298
55.0279
53.9471
51.5706
48.4731
45.4103
43.1254
42.0997
42.42
43.7733
45.5945
47.2734
48.2527
48.0994
46.5287
43.4874
39.2225
34.2053
29.0771
24.5205
21.2071
19.7121
20.3196
22.9
26.8779
31.3953
35.5943
38.7713
40.5556
40.9466
40.3127
39.2602
38.4112
38.0882
38.2006
38.343
38.0241
36.8784
34.8262
32.1635
29.527
27.76
27.5796
29.245
32.3843
36.1487
39.4829
41.4178
41.4201
39.5415
36.3926
32.9613
30.2291
28.7805
28.5794
29.1115
29.6879
29.8013
29.3964
28.9331
29.2553
31.2475
35.3601
41.2308
47.5684
52.4522
53.9239
50.5323
41.8569
28.7135
13.0944
-2.18297
-14.1242
-20.3023
-19.3928
-11.405
2.43682
19.9949
38.6701
55.9406
69.8345
79.2608
84.0781
84.9037
82.8568
79.2579
75.3936
72.2784
70.4927
70.1047
70.7608
71.8816
72.8295
73.0095
72.0062
69.7142
66.4321
62.7606
59.4066
56.9669
55.7618
55.7654
56.5752
57.5528
57.9285
57.1844
55.2021
52.3184
49.1751
46.4466
44.6415
43.9386
44.1591
44.8113
45.2334
44.8618
43.4749
41.2221
38.5207
35.8513
33.6042
32.013
31.0632
30.4601
29.7419
28.4562
26.398
23.7065
20.798
18.2662
16.7186
16.6551
18.2818
21.3845
25.3383
29.2947
32.445
34.2426
34.5491
33.5839
31.877
30.0848
28.7895
28.2685
28.4194
28.862
29.169
29.0901
28.5923
27.8301
27.1188
26.8341
27.2355
28.4058
30.1482
32.1523
34.0945
35.6962
36.7497
37.0013
36.2615
34.4713
31.7718
28.52
25.2158
22.4749
20.9197
20.9765
22.6741
25.5469
28.7562
31.4282
32.9245
33.0159
31.9909
30.496
29.3615
29.2482
30.3494
32.2267
33.999
34.7207
33.7963
31.1958
27.4703
23.6424
20.8704
20.069
21.5547
24.9097
29.1496
33.1216
35.8837
36.9084
36.1748
34.1213
31.4596
28.9772
27.2875
26.6863
27.2383
28.8546
31.3805
34.578
38.0419
41.2305
43.5694
44.5958
44.1215
42.2682
39.5693
36.8911
35.1946
35.2008
37.0699
40.3414
44.1148
47.3545
49.1999
49.21
47.4553
44.5702
41.4541
38.9207
37.4281
36.9418
37.1033
37.4121
37.4264
36.8504
35.6791
34.1493
32.6714
31.6071
31.1424
31.2654
31.851
32.7412
33.7382
34.5992
35.0606
34.9398
34.1913
32.839
31.0296
29.0529
27.3249
26.3349
26.4816
27.9059
30.4647
33.6806
36.9286
39.5122
40.7806
40.2915
38.0307
34.486
30.5644
27.353
25.9121
27.014
30.8867
37.025
44.1312
50.3692
53.8408
53.0581
47.3666
37.1329
23.7287
9.38178
-3.34916
-12.1095
-15.3252
-12.4501
-3.95806
8.85037
24.1898
40.0742
54.7735
67.0647
76.3854
82.7437
86.5335
88.3195
88.7001
88.1772
87.0418
85.3367
82.9808
79.9567
76.4712
72.9399
69.8805
67.8011
67.0625
67.7731
69.674
72.1973
74.6081
76.1952
76.5177
75.4525
73.1442
69.8874
66.1233
62.328
58.8758
55.9466
53.5236
51.5123
49.8146
48.3667
47.1051
46.0444
45.2497
44.7972
44.6718
44.631
44.2339
43.02
40.6826
37.2269
33.0049
28.6871
25.1648
23.2979
23.6088
26.0117
29.8433
34.0537
37.5664
39.5648
39.7029
38.1523
35.5602
32.8238
30.7783
29.9087
30.2285
31.3982
32.941
34.4223
35.5457
36.2264
36.6143
37.0285
37.7746
38.9585
40.4144
41.7877
42.6808
42.7638
41.8372
39.9257
37.3478
34.6791
32.5343
31.3966
31.4179
32.464
34.1461
35.9232
37.207
37.5631
36.8022
35.1055
32.9298
30.8273
29.3109
28.7806
29.4573
31.3148
34.0349
37.0186
39.5942
41.1767
41.3922
40.1481
37.6797
34.5507
31.5578
29.454
28.7088
29.3567
31.0162
33.0402
34.7543
35.6309
35.3784
34.0985
32.223
30.2915
28.7193
27.6296
26.9118
26.3592
-4e-006
-4.1e-005
-0.000141
-0.000323
-0.000607
-0.001001
-0.001486
-0.002002
-0.002451
-0.002739
0.003648
0.062163
0.154291
0.218701
0.222544
0.141789
-0.021424
-0.24531
-0.455257
-0.516585
-0.307277
0.196157
0.841897
1.35197
1.42831
0.861569
-0.352351
-1.95492
-3.39618
-3.9265
-2.81067
0.438852
5.86045
13.0571
21.2679
29.5554
37.0069
42.9121
46.8997
48.9625
49.3805
48.5558
46.8983
44.7616
42.4647
40.2567
38.3158
36.7014
35.41
34.3559
33.3906
32.3457
31.0951
29.6469
28.1202
26.7386
25.6621
24.8864
24.2627
23.5919
22.7959
22.0724
21.884
22.877
25.7481
30.8968
38.0871
46.3172
53.9786
59.3133
60.8869
57.9554
50.677
40.1454
28.1867
16.8759
8.06756
2.98968
2.20415
5.64055
12.7906
22.8653
34.8734
47.8388
60.8287
72.9857
83.5473
91.8533
97.506
100.461
101.059
99.8985
97.6525
94.9539
92.3471
90.1963
88.6177
87.5032
86.6462
85.8534
84.9971
84.0167
82.8423
81.4865
79.9998
78.5009
77.0613
75.6424
74.1513
72.4801
70.5689
68.373
65.8602
63.0715
60.1737
57.4212
55.0347
53.1397
51.7586
50.8595
50.3651
50.098
49.8087
49.2408
48.2242
46.6881
44.6424
42.1316
39.3187
36.435
33.7954
31.7124
30.3364
29.7221
29.7982
30.3813
31.1775
31.78
31.8267
31.119
29.6814
27.7698
25.7118
23.9204
22.7752
22.5565
23.3068
24.7806
26.5628
28.2339
29.4832
30.2093
30.4516
30.3941
30.3171
30.4617
30.8497
31.2178
31.1324
30.1932
28.2545
25.5139
22.477
19.8665
18.4639
18.8222
21.0388
24.6508
28.8045
32.5675
35.2084
36.4104
36.2744
35.2703
34.0543
33.25
33.2097
33.9195
35.0616
36.233
37.1089
37.4819
37.1887
36.1321
34.3206
31.8668
28.9975
26.0615
23.5515
22.0819
22.1848
24.0784
27.4151
31.3995
35.0201
37.3935
38.0635
37.1155
35.205
33.3623
32.5765
33.4547
35.9033
39.1839
42.2422
44.1264
44.3089
42.8303
40.292
37.6687
35.9836
35.9162
37.5436
40.3688
43.5578
46.2684
47.866
48.0737
47.0173
45.1527
43.05
41.1729
39.6392
38.2363
36.5831
34.3804
31.5514
28.3444
25.3294
23.3183
23.1567
25.3187
29.6551
35.3803
41.2728
46.0267
48.5983
48.4637
45.7934
41.4154
36.5713
32.4818
29.931
29.1218
29.7914
31.3794
33.2649
34.9732
36.2476
37.0915
37.6716
38.2116
38.8288
39.5651
40.4998
41.8291
43.853
46.8044
50.71
55.2701
59.8164
63.3218
64.5333
62.3236
56.0939
46.1135
33.5573
20.3043
8.61078
0.649681
-1.95163
1.44389
10.3211
23.1893
37.9536
52.5004
65.1042
74.6964
81.0135
84.4656
85.9294
86.3202
86.2528
85.9392
85.2321
83.8654
81.6375
78.4676
74.4973
70.0621
65.6093
61.5384
58.0358
55.0825
52.5892
50.4568
48.6182
47.0495
45.6816
44.4591
43.3631
42.3906
41.5055
40.6695
39.9064
39.3258
39.0517
39.1376
39.5348
40.1342
40.8101
41.4519
41.9156
42.0605
41.8114
41.199
40.3096
39.2111
37.9601
36.66
35.5213
34.7435
34.4269
34.5503
34.9589
35.4063
35.6137
35.2838
34.222
32.4537
30.2882
28.2109
26.7088
26.154
26.7122
28.3637
30.9352
34.0463
37.215
39.9873
42.036
43.1564
43.2179
42.1803
40.1864
37.5976
34.9278
32.763
31.5416
31.5213
32.6941
34.7296
36.9931
38.7219
39.3212
38.5929
36.8038
34.5889
32.7434
31.9997
32.8034
35.1804
38.6279
42.2726
45.1857
46.6876
46.4844
44.7161
41.8306
38.5023
35.454
33.266
32.2274
32.2664
33.0999
34.3452
35.6359
36.6358
37.0796
36.8574
36.0429
34.7888
33.2418
31.4969
29.585
27.5683
25.581
23.7686
22.3161
21.4536
21.4444
22.4378
24.3163
26.6783
28.9393
30.5158
30.9771
30.1974
28.3678
26.0318
23.9609
22.8895
23.2473
24.9796
27.6399
30.5612
33.0814
34.7148
35.2769
34.9298
34.1115
33.3487
33.0442
33.286
33.8917
34.5681
34.9862
34.9124
34.2254
33.0148
31.5672
30.2512
29.392
29.1177
29.3808
30.0421
30.9401
31.9261
32.9153
33.9472
35.1708
36.6942
38.4828
40.2544
41.5755
42.05
41.4399
39.7641
37.3276
34.6525
32.3846
31.0244
30.7311
31.2485
32.0598
32.5543
32.2606
30.9772
28.7556
25.9251
23.0408
20.7108
19.457
19.5996
21.2671
24.4699
29.0533
34.6413
40.6013
46.1441
50.4206
52.6906
52.4238
49.3388
43.476
35.318
25.6818
15.6451
6.41051
-0.736159
-4.49039
-3.76388
2.01368
12.6436
27.0714
43.4993
59.7353
73.6188
83.5215
88.8015
89.9511
88.3835
85.8828
83.9147
83.2525
83.8193
84.8348
85.2524
84.229
81.5107
77.6504
73.7247
70.8738
69.7729
70.4511
72.2319
74.0344
74.7797
73.6955
70.5891
65.9308
60.5915
55.5013
51.311
48.2698
46.3323
45.2802
44.8469
44.8193
45.0555
45.4653
45.9474
46.2518
45.9824
44.7513
42.3916
39.0527
35.1661
31.2997
28.0034
25.7015
24.5836
24.5153
25.1035
25.8951
26.54
26.9277
27.1107
27.179
27.234
27.3136
27.4388
27.5804
27.6739
27.7279
27.8775
28.3441
29.2755
30.5859
31.9582
32.9428
33.1544
32.3896
30.7221
28.6205
26.837
26.1849
27.2642
30.1272
34.2716
38.7957
42.7167
45.2517
46.0005
45.1169
43.2427
41.2759
40.0502
39.9973
41.0599
42.8496
44.7906
46.3065
46.9496
46.5504
45.2279
43.3701
41.4313
39.7648
38.5884
38.0148
38.0811
38.6963
39.6319
40.6038
41.3456
41.6554
41.3851
40.4133
38.7737
36.648
34.4011
32.4768
31.2822
31.0932
32.0586
34.1553
37.1378
40.4946
43.6065
45.9014
47.0136
46.8375
45.5029
43.3704
40.9569
38.7843
37.2383
36.3678
35.9917
35.7712
35.4465
34.8952
34.1332
33.3441
32.8211
32.8359
33.5187
34.6771
35.8849
36.6437
36.5829
35.5843
33.8173
31.741
30.0069
29.3091
30.1052
32.3438
35.5127
38.7715
41.2426
42.216
41.3015
38.6169
34.7822
30.7671
27.5639
25.8545
25.9285
27.5876
30.3225
33.4561
36.3131
38.3889
39.5039
39.7959
39.5495
39.011
38.3335
37.6266
36.9803
36.5177
36.3816
36.7027
37.5732
38.9674
40.7544
42.607
44.2331
45.5183
46.7567
48.5033
51.3923
55.8422
61.8158
68.6377
74.9911
79.103
79.2587
74.2991
64.1053
49.7358
33.2079
17.1257
4.16347
-3.42532
-4.30877
1.68236
13.6353
29.8094
48.0607
66.1868
82.2071
94.6947
102.973
107.201
108.176
107.037
105.001
103.027
101.691
101.059
100.811
100.413
99.4319
97.753
95.5548
93.1507
90.8384
88.7892
86.9917
85.2567
83.3041
80.9374
78.1697
75.2677
72.6583
70.6542
69.3654
68.6538
68.2471
67.8002
67.031
65.8464
64.4044
63.0435
62.1509
61.8723
62.0882
62.4537
62.5809
62.1675
61.0561
59.2869
57.0743
54.7649
52.5849
50.5474
48.4225
45.8509
42.5861
38.581
34.0158
29.316
25.0925
22.035
20.6728
21.218
23.5097
27.0768
31.3109
35.5242
39.083
41.4755
42.4588
42.1299
40.8903
39.3148
38.0357
37.6451
38.5812
40.9814
44.5391
48.6111
52.4203
55.3236
56.9543
57.2885
56.5945
55.3643
54.0967
53.1005
52.3273
51.4297
49.9404
47.5374
44.2492
40.4225
36.6537
33.6109
31.8748
31.7028
32.9265
34.9645
37.0744
38.6116
39.1746
38.6496
37.1729
35.0456
32.691
30.4987
28.686
27.2884
26.2765
25.6518
25.467
25.778
26.5733
27.7608
29.1803
30.5802
31.5822
31.7905
30.9741
29.2208
26.9324
24.7063
23.1851
22.9163
24.1573
26.7806
30.2134
33.5212
35.7651
36.2752
34.8513
31.8462
28.0121
24.36
21.8789
21.2504
22.604
25.4727
28.9815
32.1326
34.0759
34.2926
32.6827
29.5827
25.6932
21.8887
18.9307
17.2857
17.0915
18.1907
20.2359
22.7137
25.0925
26.9615
28.1582
28.757
28.968
29.002
29.0562
29.2657
29.668
30.1627
30.4835
30.3653
29.6695
28.4609
26.9752
25.5683
24.7258
24.9599
26.623
29.73
33.8876
38.3437
42.1694
44.467
44.6178
42.4062
38.2561
33.2015
28.6806
26.1517
26.6958
30.7249
37.8327
46.8103
55.8101
62.6894
65.5767
63.2944
55.6534
43.4764
28.4072
12.5884
-1.71614
-12.514
-18.4855
-19.1496
-14.7769
-6.17781
5.53692
19.1026
33.2369
46.7944
58.8248
68.6233
75.6805
79.7227
80.7867
79.3057
76.057
71.9892
67.986
64.7345
62.6487
61.835
62.0709
62.9148
63.9225
64.7945
65.4131
65.7746
65.8485
65.5169
64.621
62.9842
60.481
57.0902
53.0169
48.7463
44.9543
42.2309
40.9071
40.9649
42.0801
43.7215
45.2495
46.0653
45.8077
44.4206
42.1414
39.3512
36.4441
33.7346
31.4841
29.8954
29.063
28.8906
29.2014
29.7838
30.4152
30.9141
31.1098
30.997
30.7284
30.5971
30.8815
31.682
32.9079
34.3172
35.5973
36.4592
36.7195
36.3844
35.6783
34.9917
34.6414
34.7417
35.1628
35.6106
35.7299
35.2498
33.9661
31.8583
29.1303
26.1154
23.1558
20.5008
18.2817
16.6224
15.6991
15.6558
16.5422
18.3021
20.7491
23.582
26.3617
28.5725
29.8273
29.9875
29.205
27.8263
26.2329
24.6959
23.3989
22.4494
21.9129
21.8542
22.4632
24.0641
27.0185
31.5211
37.3713
43.9693
50.3971
55.6449
58.862
59.5063
57.6066
53.7596
48.9926
44.518
41.3186
39.9521
40.4673
42.4583
45.1667
47.6664
49.1457
49.1466
47.679
45.1674
42.2213
39.4596
37.3693
36.1759
35.7775
35.7794
35.6858
35.1521
34.1439
32.8693
31.6597
0
-2e-006
-2.4e-005
-9.7e-005
-0.00025
-0.000511
-0.000882
-0.001334
-0.001816
-0.002224
-0.002445
0.001188
0.03669
0.114983
0.204869
0.257691
0.203028
0.012709
-0.26017
-0.536327
-0.672404
-0.521156
-0.013575
0.78333
1.57684
1.93752
1.49761
0.148732
-1.84752
-3.83881
-4.91572
-4.15442
-0.905233
4.92536
12.7354
21.3657
29.4347
35.6756
39.2645
39.9866
38.2271
34.7829
30.6206
26.6478
23.5439
21.7585
21.6025
23.3542
27.2217
33.263
41.2153
50.3624
59.5384
67.1602
71.5146
71.1331
65.2435
54.0879
39.0064
22.2597
6.6652
-4.92025
-10.1097
-7.54568
2.78173
19.5758
40.4975
62.7513
83.6134
100.861
113.157
120.197
122.586
121.551
118.473
114.606
110.897
107.961
106.029
104.972
104.382
103.737
102.602
100.681
97.8439
94.2171
90.2219
86.4629
83.5245
81.7364
81.0672
81.1259
81.2785
80.8457
79.2583
76.2173
71.8325
66.6189
61.3138
56.6621
53.2277
51.2953
50.8953
51.7556
53.3558
55.0433
56.2419
56.6126
56.1021
54.8912
53.3391
51.8691
50.8698
50.4965
50.5479
50.5544
49.9217
48.2149
45.2269
41.0363
35.9841
30.6201
25.6072
21.5589
18.8836
17.7745
18.2092
20.0516
23.0085
26.6179
30.2662
33.2996
35.2597
35.9525
35.4556
34.1351
32.5736
31.4373
31.2662
32.2222
34.1026
36.4189
38.6121
40.2053
40.9082
40.6233
39.5264
37.9791
36.4136
35.198
34.5764
34.6486
35.3881
36.6294
38.0203
39.0655
39.3148
38.524
36.738
34.3009
31.797
29.9089
29.2282
29.9734
31.8312
34.0225
35.5457
35.5551
33.6562
30.0185
25.3524
20.7382
17.3016
15.8517
16.6003
19.1111
22.52
25.9034
28.5562
30.1795
30.905
31.1446
31.4652
32.3091
33.7781
35.6011
37.3013
38.4031
38.6276
37.8685
36.2494
34.0289
31.5726
29.2325
27.2791
25.8549
25.0615
25.0002
25.7371
27.1965
29.1136
31.0867
32.6738
33.524
33.4475
32.4416
30.7969
29.0173
27.603
26.9035
26.9442
27.4971
28.2299
28.7968
28.9658
28.673
28.0447
27.3527
26.8787
26.7894
27.0324
27.4385
27.8236
28.0789
28.171
28.107
27.9499
27.7934
27.7362
27.7664
27.8081
27.7614
27.6474
27.5881
27.7446
28.2688
29.2288
30.5795
32.1433
33.546
34.2791
33.8671
32.1109
29.2165
25.8066
22.8062
21.242
21.9832
25.417
31.1847
38.0912
44.3978
48.241
48.1338
43.2945
33.8771
20.9935
6.50936
-7.35594
-18.51
-25.4103
-27.2099
-23.7913
-15.6981
-4.00148
9.86836
24.3631
38.0576
49.8124
58.9032
65.0305
68.3494
69.4335
69.0948
68.1423
67.1218
66.3232
65.8071
65.5138
65.3306
65.1527
64.9158
64.6384
64.3511
63.9498
63.2229
61.9514
60.065
57.7772
55.5468
53.9145
53.3742
54.2083
56.3421
59.2513
62.0173
63.645
63.3694
60.9386
56.6866
51.4141
46.2181
42.2331
40.3311
40.8015
43.336
47.0895
50.9879
54.0509
55.5862
55.2943
53.3511
50.3144
46.958
44.0016
41.8872
40.7183
40.297
40.2652
40.1739
39.573
38.1596
35.9337
33.1565
30.2712
27.709
25.874
25.0629
25.3791
26.7118
28.6816
30.7951
32.5814
33.7799
34.3234
34.2983
33.9443
33.6104
33.6451
34.2694
35.4642
37.052
38.7997
40.4956
41.9709
43.0423
43.5915
43.5614
43.0118
42.0552
40.7985
39.3775
37.9917
36.8587
36.0608
35.5272
35.0402
34.374
33.3696
32.0635
30.6485
29.4599
28.9183
29.3958
30.9597
33.2655
35.6628
37.386
37.8694
36.918
34.7748
32.1047
29.8891
29.1018
30.3812
33.785
38.7729
44.3962
49.5911
53.39
55.1203
54.6163
52.1995
48.6177
44.784
41.4982
39.2669
38.2893
38.4232
39.2207
40.0385
40.233
39.4138
37.5735
35.0493
32.4335
30.4123
29.591
30.3544
32.6994
36.1963
40.1262
43.7609
46.5624
48.2441
48.7528
48.2235
46.9342
45.1664
43.1761
41.1609
39.2989
37.8714
37.2438
37.6769
39.1832
41.4451
43.8569
45.7036
46.337
45.35
42.7413
38.9645
34.7883
31.0202
28.1893
26.4326
25.5247
25.0795
24.6659
23.9982
23.0246
21.947
21.1454
20.9291
21.4054
22.4396
23.8269
25.4467
27.3682
29.8531
33.283
38.0206
44.2097
51.451
58.7087
64.4452
66.8592
64.417
56.2289
42.3433
23.8834
3.01249
-17.4087
-34.3814
-45.4291
-49.0772
-45.0843
-34.4462
-19.1857
-1.92806
14.6624
28.4854
38.381
44.214
46.7199
47.1797
47.0597
47.6398
49.6643
53.1558
57.5221
61.806
65.0255
66.4555
65.741
63.025
58.9187
54.3419
50.245
47.3455
45.921
45.8635
46.784
48.1125
49.2818
49.8783
49.7737
49.1485
48.364
47.7751
47.5706
47.7773
48.3085
48.9458
49.4305
49.5671
49.2557
48.5879
47.7558
46.9314
46.1928
45.5299
44.8994
44.2101
43.3122
42.0563
40.3849
38.3871
36.2291
34.0814
32.0813
30.3653
29.0847
28.3125
28.0349
28.141
28.5029
29.0664
29.8438
30.8523
32.1054
33.6215
35.356
37.1564
38.7015
39.5608
39.3545
37.9257
35.4087
32.2382
29.0232
26.5201
25.467
26.3782
29.3695
34.0901
39.7788
45.4889
50.2422
53.258
54.0424
52.6107
49.509
45.6329
41.9644
39.3029
38.105
38.4045
39.8025
41.587
42.9431
43.2213
42.1633
39.9176
36.9403
33.8065
31.0788
29.1813
28.2913
28.2919
28.835
29.5222
30.0467
30.2011
29.9136
29.1659
28.0228
26.6452
25.2279
23.9317
22.8379
22.0387
21.6024
21.6112
22.0795
22.9659
24.1932
25.6845
27.3102
28.837
29.9284
30.2607
29.6605
28.1981
26.2128
24.2503
22.9911
23.0862
24.9112
28.4056
32.967
37.6466
41.4373
43.5679
43.7081
41.9987
39.0595
35.7768
32.972
31.0978
30.1073
29.5619
28.8665
27.5463
25.4447
22.756
20.0131
17.9194
17.1264
17.922
20.1174
23.1912
26.4757
29.3921
31.5662
32.8661
33.4056
33.4805
33.3511
33.0578
32.3596
30.9116
28.4565
25.0793
21.26
17.8764
16.0494
16.8536
20.9389
28.1532
37.4649
47.1628
55.3703
60.5973
62.2423
60.7845
57.776
55.3547
55.5257
59.3996
66.6631
75.5529
83.3368
87.0772
84.5044
74.6433
58.2381
37.6428
16.2139
-2.5222
-15.7272
-21.7525
-20.3059
-12.3389
0.376618
15.6499
31.4067
46.0446
58.5778
68.543
75.8204
80.6015
83.2767
84.3672
84.3933
83.7707
82.8143
81.7801
80.8797
80.2224
79.832
79.6731
79.6926
79.784
79.6903
79.041
77.4412
74.6705
70.8131
66.2335
61.5245
57.3536
54.3329
52.7875
52.6141
53.236
53.876
53.8335
52.7437
50.6774
48.0873
45.6102
43.8579
43.1762
43.4474
44.0792
44.3169
43.5509
41.6156
38.826
35.866
33.5327
32.5064
33.0469
34.855
37.0795
38.6249
38.5983
36.623
32.9635
28.4202
24.1444
21.3116
20.7123
22.4968
26.0638
30.3243
34.0835
36.4624
37.087
36.1441
34.2734
32.3056
30.9785
30.6368
31.1155
31.9238
32.5024
32.5034
31.8763
30.8401
29.7909
29.1854
29.3228
30.2135
31.5243
32.779
33.5701
33.7159
33.3363
32.7678
32.4865
32.9879
34.6435
37.5444
41.3991
45.6381
49.5888
52.6593
54.4165
54.6553
53.4145
51.0249
48.0221
44.9831
42.3221
40.2665
38.8821
38.1431
37.8831
37.8354
37.7416
37.4454
36.8971
36.124
35.1157
33.8541
32.3427
30.6385
28.8108
26.8627
24.8656
22.8894
21.0789
19.5875
18.4368
17.6281
17.1228
16.934
17.1271
17.7649
18.9638
20.9366
23.919
28.1009
33.4891
39.9034
47.0465
54.5326
61.9789
68.9588
75.1417
80.3596
84.6268
88.08
90.8727
93.1241
94.9572
96.4248
97.4972
98.015
97.7259
96.4711
94.2385
91.1907
87.5547
83.6432
79.8083
76.4274
73.7574
71.8772
70.7353
70.1288
69.7332
69.0904
67.5889
64.5988
59.6963
52.9234
44.874
36.6173
29.6069
25.2405
24.5142
27.5729
33.5014
40.5061
46.3834
49.1487
47.5928
41.5226
31.8673
20.4125
9.32894
0.654454
-4.16424
-4.42591
-0.090157
8.4425
20.4902
35.1272
51.3018
67.8985
83.7857
97.8728
109.228
117.28
121.968
123.786
123.606
122.375
120.864
119.57
118.67
118.046
117.377
116.283
114.483
111.863
108.416
104.185
99.2831
93.9138
88.4093
83.1967
78.6592
75.0495
72.3981
70.5302
69.0503
67.3946
65.0716
61.8354
57.8433
53.5531
49.5278
46.215
43.8223
42.2625
41.1861
40.0981
38.5948
36.5522
34.1966
31.9758
30.2923
29.3269
28.9987
29.0504
29.1785
29.1605
29.0093
29.0484
29.7956
31.6911
34.8768
39.0705
43.6222
47.7376
50.7417
52.2059
52.0709
50.6856
48.6846
46.7452
45.348
44.6418
44.5336
44.7714
45.078
45.2131
45.0336
44.5255
43.804
43.027
42.2838
41.57
40.8463
40.1252
39.4251
38.7153
37.8831
36.8141
35.4104
33.6061
31.3643
28.71
25.7978
22.9711
20.6506
19.2392
19.0286
20.1375
22.54
26.0385
30.2458
34.6112
38.605
41.8547
44.1814
45.5663
46.155
46.2278
46.1409
46.2127
46.6118
47.3098
48.1359
48.8813
49.3674
49.4678
49.1377
48.4703
47.7199
47.2152
47.1912
47.6987
48.6369
49.7721
50.7993
51.3998
51.3026
50.4326
48.9817
47.3198
45.8695
44.9195
44.6062
44.916
45.6384
46.4263
46.8511
46.6047
45.5701
43.8467
41.6777
39.3211
37.022
35.0141
33.4382
32.3015
31.5015
30.8836
30.3603
29.9345
29.6669
29.6074
29.8326
30.4141
31.3942
32.6358
33.8685
34.7524
35.036
34.6461
33.7195
32.5496
31.5726
31.2529
-3e-006
-3.5e-005
-0.00011
-0.000244
-0.000451
-0.000734
-0.001084
-0.001461
-0.001796
-0.002024
0.00365
0.052859
0.112072
0.155102
0.150668
0.088955
-0.018476
-0.159867
-0.291068
-0.328186
-0.190184
0.14046
0.565542
0.903986
0.964238
0.624123
-0.149326
-1.22245
-2.24945
-2.71794
-2.07505
0.107575
3.96558
9.28294
15.5318
21.9546
27.7331
32.2024
35.021
36.2664
36.3886
36.0246
35.7606
35.9608
36.7284
37.8453
38.9046
39.4643
39.2208
38.1668
36.5528
34.7752
33.2234
32.1507
31.6428
31.6069
31.8387
32.1323
32.4096
32.7745
33.4392
34.6624
36.4748
38.7246
41.1008
43.2401
44.8543
45.7931
46.1561
46.2946
46.6713
47.6227
49.1985
51.1465
53.0388
54.4419
55.0118
54.572
53.2387
51.3616
49.3429
47.4879
45.8444
44.2423
42.4539
40.3171
37.7805
34.9568
32.0987
29.5604
27.6523
26.5524
26.2119
26.3968
26.8924
27.5263
28.1963
28.8303
29.3827
29.8745
30.3466
30.8215
31.2568
31.5874
31.8304
32.0068
32.1109
32.0498
31.7206
31.1102
30.3009
29.5122
28.9889
28.9642
29.6096
30.9415
32.739
34.5431
35.8458
36.3052
35.8779
34.8047
33.4892
32.3906
31.8795
32.1159
32.956
33.9784
34.705
34.8322
34.3216
33.4149
32.4557
31.7731
31.5823
31.9148
32.5721
33.1937
33.4416
33.1924
32.5833
31.9648
31.7432
32.2438
33.6442
35.9058
38.7143
41.5062
43.6256
44.524
43.8924
41.7637
38.4122
34.3656
30.366
27.1756
25.3636
25.1558
26.4139
28.7119
31.4646
34.0375
35.8468
36.5229
35.988
34.4713
32.3802
30.1401
28.1441
26.7355
26.1457
26.4379
27.4463
28.85
30.2932
31.4971
32.2865
32.6213
32.6343
32.6384
33.0228
34.1119
35.9766
38.4066
40.9778
43.1847
44.5419
44.6398
43.3217
40.7922
37.6266
34.6227
32.6345
32.3768
34.3009
38.4486
44.2946
50.7249
56.2004
59.0896
58.0035
52.1274
41.3736
26.5108
9.12137
-8.63214
-24.4663
-36.3846
-42.959
-43.5437
-38.2451
-27.9027
-13.9461
1.90769
17.919
32.6196
44.9325
54.1985
60.2332
63.2917
64.0192
63.1953
61.5732
59.7215
58.0035
56.59
55.456
54.4261
53.2788
51.9176
50.4296
49.0541
48.0618
47.6496
47.9057
48.8137
50.1991
51.7332
53.0138
53.7976
54.0458
53.877
53.5322
53.267
53.3347
53.9369
55.1325
56.7788
58.5912
60.2226
61.3731
61.7924
61.3123
59.8922
57.6841
55.0397
52.4104
50.1762
48.55
47.5543
46.9943
46.5092
45.6555
44.0752
41.6418
38.6145
35.5307
32.9847
31.5134
31.3729
32.5575
34.6847
37.1253
39.1079
40.0078
39.5376
37.7681
35.0894
32.0527
29.3142
27.4824
26.9658
27.8211
29.7735
32.3325
34.9949
37.3606
39.215
40.5221
41.482
42.4414
43.6165
44.9632
46.1649
46.7528
46.2972
44.5428
41.4944
37.4748
33.0678
28.9616
25.7653
23.8133
23.1234
23.5021
24.7106
26.5574
28.9498
31.8396
35.2313
39.0958
43.2107
47.1457
50.3239
52.1885
52.4554
51.1652
48.6063
45.317
41.8858
38.8779
36.6551
35.3614
34.8705
34.9644
35.49
36.3606
37.5323
38.9163
40.3958
41.8175
42.9744
43.5995
43.4718
42.5089
40.8686
38.9258
37.1178
35.8162
35.2502
35.5309
36.5356
37.9436
39.3207
40.2795
40.6064
40.2785
39.4108
38.2154
36.946
35.8351
35.0159
34.4189
33.7743
32.7699
31.2305
29.1826
26.9467
25.0529
24.1398
24.864
27.5657
32.0974
37.8161
43.6994
48.667
51.8612
52.7821
51.4034
48.1681
43.9086
39.6026
36.1651
34.2835
34.3936
36.7342
41.275
47.6382
55.0414
62.2945
67.9505
70.4382
68.3406
60.7259
47.519
29.7224
9.39341
-10.7223
-27.7054
-38.9996
-42.9039
-38.9445
-27.9716
-11.9664
6.46226
24.706
40.6592
53.0279
61.4296
66.2976
68.6173
69.5408
70.0034
70.5201
71.1907
71.87
72.3231
72.3835
71.977
71.1807
70.2353
69.4208
68.8911
68.6557
68.605
68.5647
68.3983
68.0156
67.3256
66.3222
65.1823
64.1768
63.5524
63.4678
63.9671
64.9948
66.3625
67.7524
68.8102
69.2337
68.9203
67.9435
66.513
64.8412
63.1043
61.4004
59.7374
58.0113
56.0317
53.6448
50.8067
47.604
44.1495
40.5533
36.9166
33.3889
30.136
27.3406
25.142
23.6695
22.9815
23.0629
23.7465
24.7118
25.5844
26.0609
25.9789
25.3456
24.2611
22.939
21.6634
20.7328
20.3447
20.5264
21.2335
22.3509
23.7406
25.2648
26.7134
27.8997
28.7381
29.2598
29.5507
29.7088
29.8453
30.0691
30.3924
30.6897
30.6643
30.0018
28.5319
26.3101
23.6483
20.99
18.8559
17.7044
17.8061
19.1571
21.4606
24.2891
27.2395
30.0493
32.5552
34.6194
36.1327
36.9992
37.1163
36.4203
34.9364
32.8715
30.6184
28.7033
27.5601
27.347
27.9149
28.8834
29.758
30.0866
29.5858
28.3026
26.5701
24.8981
23.752
23.3531
23.6656
24.4633
25.4568
26.3943
27.0856
27.5072
27.7797
28.1113
28.6624
29.4376
30.3045
31.1122
31.7315
32.1158
32.1996
31.9989
31.6159
31.1916
30.8386
30.5544
30.3093
30.0743
29.8705
29.7414
29.6989
29.7327
29.8454
30.0595
30.4235
30.9709
31.7665
32.9627
34.7034
36.9804
39.5455
41.9579
43.7448
44.6134
44.6182
44.2716
44.5382
46.6102
51.5254
59.6193
70.0862
80.9897
89.5079
92.5856
87.7017
73.6278
50.9461
22.1474
-8.75508
-37.1323
-58.7967
-70.8855
-72.3932
-64.2161
-48.8158
-29.558
-9.86493
7.58434
21.2572
30.8519
36.9462
40.5852
42.8727
44.6405
46.2442
47.5694
48.2686
48.0231
46.7497
44.6315
42.0606
39.4924
37.3658
36.0161
35.5886
36.005
36.9863
38.2127
39.4263
40.447
41.1662
41.6135
42.0057
42.7096
44.1071
46.4325
49.7267
53.8044
58.3154
62.8305
66.8221
69.8848
71.8296
72.7259
72.8311
72.447
71.8618
71.3394
71.0881
71.2093
71.6282
72.1263
72.3915
72.1012
70.9748
68.7708
65.4026
61.0469
56.1048
51.1306
46.6044
42.8328
39.8687
37.5904
35.7496
34.0269
32.1956
30.246
28.3815
26.8955
25.9869
25.6649
25.7629
26.0194
26.1608
25.9898
25.4689
24.7961
24.3984
24.771
26.2385
28.8884
32.4844
36.5352
40.355
43.177
44.3527
43.588
41.0501
37.3854
33.4558
30.1713
28.2777
28.175
29.7835
32.5231
35.4964
37.8201
38.8778
38.4623
36.7754
34.3483
31.8751
30.0085
29.156
29.293
30.0393
30.8441
31.2208
30.9086
29.9165
28.5488
27.288
26.7035
27.2365
29.0004
31.7709
35.1114
38.5281
41.5936
43.9998
45.5931
46.4123
46.6124
46.3739
45.7965
44.8905
43.6811
42.2815
40.9066
39.7652
39.0813
38.9812
39.4523
40.2859
41.0717
41.2746
40.4757
38.5058
35.5415
32.0156
28.5108
25.6338
23.8807
23.437
24.1343
25.56
27.1812
28.6057
29.6215
30.1699
30.2666
29.9489
29.2484
28.21
26.9121
25.5867
24.7523
25.1953
27.739
32.8525
40.2887
48.915
56.8187
61.612
60.9789
53.3639
38.5808
18.0919
-5.24993
-27.7828
-45.9069
-56.8363
-59.1891
-53.1983
-40.5503
-23.8473
-5.91947
10.8599
24.9498
35.6689
43.0626
47.6496
50.2114
51.4807
52.009
52.1138
51.9993
51.8197
51.7028
51.6944
51.7253
51.6729
51.4761
51.1511
50.7935
50.5899
50.7163
51.3319
52.4785
53.9717
55.3889
56.2765
56.2997
55.3786
53.7124
51.6361
49.5938
48.006
47.1696
47.1192
47.6369
48.4035
49.1613
49.7712
50.1493
50.2614
50.116
49.7642
49.2251
48.4747
47.4312
46.0668
44.4741
42.7998
41.2344
39.8951
38.7676
37.7736
36.7331
35.3768
33.4424
30.7493
27.4253
23.8449
20.5518
18.0753
16.8216
17.0069
18.5558
21.0979
24.0437
26.7838
28.8963
30.2369
30.858
30.9279
30.6472
30.1942
29.708
29.2378
28.7494
28.2415
27.8269
27.6674
27.9137
28.5526
29.4541
30.437
31.3399
32.0595
32.5775
32.9873
33.5284
34.485
35.9582
37.8512
39.8864
41.7212
43.0463
43.63
43.3774
42.3674
40.8613
39.1722
37.6415
36.4554
35.6649
35.251
35.1111
35.0662
34.9123
34.4784
33.7275
32.8332
32.0725
31.7167
31.9716
32.9316
34.5051
36.419
38.224
39.5459
40.2081
40.3778
40.4162
40.7479
41.7233
43.4754
45.8579
48.4669
50.7232
52.0801
52.2884
51.4238
49.8019
47.8251
45.8645
44.2139
43.0262
42.3046
41.9507
41.8197
41.8108
41.8793
41.8858
41.5821
40.7181
39.139
36.9417
34.5171
32.504
31.7078
32.9339
36.7003
42.9925
51.05
59.4165
66.2012
69.4331
67.4634
59.3249
45.1282
26.1701
4.8825
-15.6079
-32.0998
-41.8965
-43.3732
-36.2835
-21.8426
-2.5174
18.6313
38.5541
54.9399
66.4728
72.9166
74.9886
74.0227
71.5451
68.9439
67.1128
66.4746
67.0868
68.783
71.2056
73.8739
76.2623
77.9072
78.4483
77.6733
75.5328
72.2247
68.2097
64.1583
60.7279
58.3856
57.2986
57.281
57.895
58.5509
58.624
57.675
55.6686
52.9739
50.231
48.1327
47.2026
47.6549
49.3057
51.5654
53.5652
54.4445
53.6424
51.0638
47.1111
42.4715
37.9534
34.2713
31.8527
30.7036
30.4304
30.4399
30.1723
29.3502
27.9847
26.2879
24.6269
23.3499
22.6925
22.6889
23.0985
23.5768
23.8352
23.8171
23.613
23.4185
23.4401
23.8586
24.7627
26.117
27.7392
29.4687
31.2093
32.9884
34.8444
36.7326
38.4532
39.7
40.2047
39.8065
38.5858
36.9364
35.5489
35.2636
36.7176
40.0385
44.785
50.0089
54.5753
57.4941
58.162
-0
-5e-006
-3.2e-005
-0.000119
-0.000308
-0.000633
-0.001105
-0.001709
-0.002386
-0.003032
-0.002968
0.004632
0.042726
0.131077
0.24976
0.323569
0.281955
0.093524
-0.216059
-0.539353
-0.726774
-0.621836
-0.113295
0.7394
1.6278
2.09613
1.73142
0.369452
-1.76242
-4.00848
-5.3941
-4.87658
-1.62758
4.66559
13.644
24.3553
35.4879
45.7328
54.0549
59.8621
63.0374
63.834
62.7438
60.3014
56.9798
53.1616
49.2169
45.5742
42.6876
40.9186
40.4537
41.1949
42.7924
44.6747
46.1765
46.7103
45.9685
44.0398
41.3715
38.6668
36.7499
36.4305
38.3917
43.0224
50.1818
59.0767
68.3132
76.0306
80.1133
78.5599
69.9588
53.9687
31.6693
5.51457
-21.0901
-44.386
-60.971
-68.4898
-66.197
-55.1048
-37.6976
-17.3024
2.77755
19.9225
32.614
40.5727
44.5423
45.9109
46.1544
46.3516
46.9954
48.0234
49.0831
49.7325
49.6432
48.7094
47.0545
45.0357
43.0741
41.4606
40.3573
39.7669
39.6873
40.1274
41.0724
42.4624
44.2059
46.2195
48.3397
50.3082
51.8059
52.5811
52.5618
51.925
50.9773
50.0913
49.646
49.9223
50.9789
52.5334
54.0423
54.9145
54.6958
53.2271
50.6546
47.4099
44.0907
41.3241
39.5227
38.7345
38.6266
38.6559
38.334
37.3671
35.7226
33.6279
31.5101
29.8502
28.9959
28.9826
29.5218
30.1425
30.3993
29.9951
28.8276
27.0468
25.0009
23.1971
22.1269
22.0959
23.1502
25.0797
27.5749
30.28
32.88
35.1319
36.9201
38.3013
39.374
40.1591
40.5423
40.3411
39.3921
37.6766
35.344
32.7138
30.2914
28.6606
28.3145
29.4331
31.7766
34.8035
37.8088
40.1545
41.3852
41.3417
40.2231
38.5102
36.7708
35.4269
34.6023
34.1545
33.8304
33.3462
32.5046
31.2372
29.6648
28.0882
26.8483
26.1996
26.2116
26.8071
27.8574
29.2189
30.7122
32.1405
33.3764
34.3775
35.1692
35.8286
36.4261
37.0417
37.803
38.7657
39.8981
40.9874
41.7391
41.9372
41.5448
40.6952
39.7167
39.0769
39.2355
40.4709
42.7003
45.3723
47.6773
48.8031
48.1934
45.7387
41.8183
37.2414
33.0406
30.1906
29.283
30.3124
32.7799
35.8889
38.7772
40.7348
41.2956
40.3061
37.9486
34.6173
30.8114
27.0563
23.9058
22.0398
22.1294
24.7441
30.0754
37.8181
47.1054
56.5393
64.3273
68.569
67.7409
61.092
48.8987
32.4357
13.7182
-4.81828
-20.714
-31.9084
-37.0557
-35.7455
-28.408
-16.1343
-0.473607
16.7299
33.5394
48.2152
59.438
66.5128
69.438
68.7945
65.7059
61.5877
57.804
55.3552
54.6275
55.4098
57.1222
59.0468
60.583
61.3908
61.4547
61.0307
60.4304
59.85
59.2258
58.3315
56.9576
55.0935
52.9531
50.9109
49.3786
48.7654
49.2432
50.7553
52.962
55.4366
57.7865
59.791
61.3489
62.412
62.9302
62.8759
62.2641
61.1276
59.4765
57.3853
55.02
52.6169
50.3895
48.417
46.7061
45.2414
44.0046
42.959
42.0014
40.9751
39.725
38.1239
36.0857
33.5655
30.7027
27.8409
25.461
24.0452
23.8265
24.7126
26.3687
28.2993
29.9782
31.0232
31.3514
31.2426
31.2197
31.7521
33.0182
34.7934
36.5146
37.5043
37.1814
35.3005
32.1081
28.387
25.2083
23.5722
24.0238
26.5245
30.4468
34.8165
38.5732
40.8904
41.3787
40.2114
38.015
35.5736
33.5006
32.1178
31.4377
31.2552
31.2778
31.2313
31.0033
30.715
30.6397
31.0605
32.1002
33.649
35.4805
37.3142
38.8382
39.7877
40.025
39.5993
38.6844
37.5412
36.3567
35.225
34.1579
33.1344
32.0951
30.8856
29.4045
27.6462
25.8018
24.1759
23.121
22.962
23.9419
26.1442
29.4175
33.3344
37.2951
40.692
43.084
44.2786
44.2618
43.1964
41.4074
39.2745
37.1251
35.1529
33.4933
32.262
31.6506
31.8387
32.8656
34.5898
36.6402
38.4673
39.4335
38.9817
36.8756
33.4461
29.6544
26.9202
26.6959
30.0703
37.358
47.8706
59.7885
70.4104
76.6858
75.9626
66.6783
48.8683
24.198
-4.17133
-32.2145
-55.7854
-71.4751
-77.4008
-73.4393
-61.1655
-43.3165
-23.1452
-3.72887
12.6134
24.729
32.6224
37.1854
39.6862
41.3234
42.9116
44.7774
46.8266
48.6148
49.6487
49.6972
48.8722
47.5885
46.3733
45.745
46.0069
47.2691
49.3817
51.9626
54.5376
56.7122
58.2439
59.0457
59.1249
58.5335
57.3741
55.8446
54.2246
52.774
51.7501
51.3467
51.7327
52.9164
54.6757
56.5909
58.1817
59.1106
59.2414
58.6114
57.47
56.1825
55.183
54.783
55.0511
55.8034
56.6975
57.3737
57.589
57.1746
56.0604
54.3201
52.1531
49.8083
47.4814
45.3169
43.4458
42.0436
41.2878
41.212
41.7499
42.7183
43.8612
44.8933
45.5363
45.5952
44.9903
43.8989
42.5992
41.3852
40.434
39.8702
39.7118
39.9174
40.3693
40.9293
41.5041
42.1111
42.8319
43.7453
44.8189
45.951
47.0459
47.9721
48.5537
48.6118
48.0222
46.8316
45.1968
43.3605
41.5704
40.0849
39.1836
39.0477
39.7009
40.9495
42.4682
43.8745
44.8699
45.2327
44.8741
43.9051
42.673
41.6554
41.2485
41.6345
42.7733
44.4184
46.1613
47.4763
47.9087
47.2077
45.4892
43.1468
40.7509
38.8518
37.8526
37.9864
39.1915
41.1647
43.3942
45.4024
46.8798
47.7416
48.0726
48.0826
48.0064
48.1
48.524
49.2767
50.1295
50.7803
50.9325
50.401
49.134
47.2559
45.1209
43.2901
42.3773
42.8448
44.7704
47.7934
51.2221
54.1735
55.7975
55.5014
53.1977
49.3606
44.8731
40.6818
37.4541
35.425
34.4144
33.9905
33.671
33.12
32.3738
31.7915
31.8536
32.8787
34.7969
37.2052
39.6207
41.7102
43.539
45.5659
48.5627
53.1692
59.437
66.465
72.2761
74.2588
69.9359
57.7492
37.6762
11.5056
-17.4136
-44.7833
-66.3806
-79.0678
-81.5003
-74.2669
-59.6044
-40.6893
-20.9001
-3.14538
10.6944
19.949
25.0043
26.939
27.0487
26.5219
26.3114
27.0437
28.9577
31.9291
35.5874
39.4669
43.0994
46.0478
47.9426
48.6202
48.1888
47.0183
45.5989
44.349
43.5728
43.3844
43.7108
44.3173
44.8412
44.9683
44.562
43.731
42.7552
41.9182
41.5274
41.7675
42.668
44.0893
45.7221
47.2459
48.5148
49.6155
50.77
52.2206
54.1144
56.4743
59.1089
61.6192
63.518
64.4016
64.1063
62.7767
60.7544
58.3578
55.8456
53.3229
50.7795
48.1371
45.3181
42.3713
39.5425
37.2595
35.8822
35.5225
35.9775
36.7764
37.3065
36.9678
35.2876
32.1007
27.6315
22.4533
17.2616
12.6407
8.97163
6.37268
4.72333
3.71297
2.90861
1.91252
0.497307
-1.3083
-3.29411
-5.21705
-6.78967
-7.74077
-7.86101
-7.06626
-5.42029
-3.07156
-0.157704
3.25708
7.11223
11.2969
15.6549
20.0351
24.2883
28.2201
31.6062
34.2479
36.043
36.9982
37.2149
36.7603
35.8206
34.6275
33.4986
32.762
32.6386
33.2288
34.4871
36.2988
38.4472
40.6132
42.5064
43.9295
44.825
45.2356
45.195
44.746
43.972
43.0266
42.1011
41.3666
40.9408
40.9183
41.3441
42.1344
43.0694
43.849
44.2122
44.0531
43.4221
42.4287
41.2689
40.1678
39.3278
38.8548
38.6827
38.6187
38.462
38.1116
37.5664
36.8884
36.2021
35.7471
35.812
36.623
38.2969
40.7877
43.993
47.7377
51.7977
55.844
59.5576
62.6719
65.0528
66.6744
67.5753
67.8773
67.7908
67.6097
67.6281
68.03
68.8637
70.1057
71.6283
73.2208
74.5698
75.2942
75.0842
73.7938
71.494
68.4916
65.3395
62.8416
61.9354
63.4193
67.6489
74.3204
82.4313
90.4092
96.3257
98.2328
94.675
85.0953
70.0723
51.3126
31.3002
12.8633
-1.3012
-9.0909
-9.36801
-2.24513
11.0281
28.3965
47.4037
65.608
81.0054
92.3036
99.158
102.142
102.447
101.486
100.511
100.34
101.268
103.029
104.935
106.197
106.22
104.826
102.227
98.9152
95.474
92.4631
90.2581
88.9902
88.549
88.6028
88.7836
88.8101
88.4915
87.6935
86.3308
84.4062
82.024
79.3484
76.5337
73.7025
70.9716
68.4817
66.3118
64.4251
62.6903
60.9427
59.0348
56.8792
54.4102
51.6067
48.536
45.398
42.4948
40.0797
38.3559
37.4366
37.3287
37.8922
38.7936
39.5577
39.6827
38.8538
36.9419
34.0177
30.3691
26.4768
22.9805
20.5305
19.5965
20.3739
22.7488
26.3311
30.4592
34.3034
37.0466
38.1086
37.3558
35.1316
32.1883
29.4666
27.8769
28.0592
30.1629
33.7063
37.6802
40.9039
42.4143
41.7363
39.0435
35.0757
30.9294
27.7592
26.3351
26.8203
28.7307
31.1805
33.268
34.3802
34.3473
33.4421
32.2287
31.3508
31.2333
31.9008
33.0135
34.0358
34.5383
34.3477
33.5737
32.5057
31.4929
30.8468
30.7152
31.0319
31.5916
32.2325
32.9415
33.8576
35.1411
36.8078
38.7349
40.6417
42.1678
42.9701
42.8172
41.7382
40.0068
38.0066
36.0396
34.2107
32.466
30.6965
28.8841
27.1384
25.6868
24.8995
25.11
26.4266
28.6221
31.1036
33.0812
33.8891
33.1493
30.9129
27.6026
23.9424
20.7827
18.8418
18.4579
19.5426
21.6681
24.2584
26.7837
28.8308
30.1905
30.8245
30.8926
30.6103
30.1654
29.621
28.9534
28.149
27.2422
26.3119
25.4255
24.7365
24.4603
24.8577
26.0651
28.0384
30.5174
33.1055
35.303
36.645
36.7782
35.6749
33.6993
31.5239
29.8727
29.2449
29.7623
31.129
32.7353
33.865
33.98
33.0448
31.6469
30.8527
31.8377
35.3346
41.2545
48.5267
55.1755
58.7111
56.6981
47.5012
30.8888
-3e-006
-3e-005
-0.000105
-0.000238
-0.000441
-0.000721
-0.001068
-0.001445
-0.001786
-0.002027
0.002691
0.046177
0.113692
0.158989
0.151519
0.089678
-0.020898
-0.157086
-0.282899
-0.313403
-0.170587
0.166957
0.590552
0.918325
0.96248
0.600439
-0.176891
-1.22823
-2.20512
-2.63116
-1.97662
0.164219
3.914
9.06469
15.1098
21.3588
27.0861
31.6648
34.7877
36.5446
37.3881
37.9555
38.8482
40.4473
42.8239
45.7284
48.6582
51.0298
52.3982
52.6216
51.9023
50.7115
49.5662
48.8658
48.7757
49.1629
49.6463
49.7275
48.9905
47.28
44.7713
41.913
39.2088
37.0617
35.6794
35.0638
34.963
34.9856
34.772
34.2011
33.4517
32.9127
33.0105
34.0661
36.2004
39.2455
42.7068
45.8315
47.8769
48.3167
47.0593
44.4615
41.1928
38.0788
35.8982
35.1803
36.0221
38.0199
40.4638
42.6165
43.9646
44.3228
43.8375
42.8813
41.9634
41.5497
41.8365
42.6962
43.7199
44.4336
44.4541
43.601
41.8936
39.5656
37.0663
34.9113
33.5144
33.0474
33.4045
34.3128
35.4305
36.4067
36.9906
37.0939
36.8395
36.5679
36.6088
37.1276
38.1165
39.3717
40.6152
41.5439
41.9057
41.6264
40.82
39.7499
38.7016
37.8357
37.1836
36.692
36.332
36.1107
36.0631
36.2597
36.7998
37.7614
39.1118
40.6753
42.2169
43.5598
44.6649
45.5727
46.346
46.9878
47.4711
47.7374
47.6516
47.0726
45.8741
44.0994
41.9449
39.6645
37.4225
35.3003
33.3119
31.4939
29.8867
28.5503
27.5847
27.1532
27.4269
28.4751
30.1891
32.2572
34.273
35.9113
36.9427
37.2602
36.9453
36.2412
35.4912
35.0282
35.0034
35.4276
36.1857
37.156
38.2418
39.364
40.4656
41.4652
42.2901
42.8236
42.9072
42.4666
41.7166
41.2513
41.9887
44.8675
50.5742
59.1823
69.8957
80.9265
89.6687
93.2172
89.1739
76.3948
55.4486
28.7209
0.001405
-26.1789
-45.5883
-55.2387
-54.1465
-43.4192
-25.8894
-5.25183
14.7931
31.3287
42.7361
48.812
50.5212
49.4234
47.0706
44.6072
42.6011
41.2041
40.3272
39.8149
39.6011
39.7743
40.4714
41.7669
43.4981
45.2625
46.5908
47.1688
46.9049
45.9659
44.6869
43.4546
42.631
42.462
42.9616
43.988
45.3508
46.9148
48.6001
50.2739
51.7424
52.8081
53.3326
53.2795
52.7287
51.8603
50.9451
50.2801
50.0115
50.048
50.0301
49.5192
48.1826
45.9119
42.8533
39.3677
35.9583
33.16
31.3668
30.7076
31.0353
32.0166
33.3031
34.5446
35.383
35.5367
34.8432
33.3604
31.3934
29.4118
27.9459
27.5177
28.4598
30.8241
34.2707
38.1306
41.6506
44.2808
45.8071
46.3853
46.4349
46.4964
47.0814
48.5171
50.78
53.5781
56.4925
59.1998
61.5241
63.4359
64.9578
66.2162
67.3598
68.5081
69.6835
70.8138
71.7649
72.4356
72.7603
72.6939
72.2223
71.3788
70.36
69.3882
68.6176
68.0615
67.5999
67.0331
66.1836
64.9333
63.2947
61.4769
59.8836
58.9415
58.8968
59.7045
61.0023
62.2406
62.7985
62.1712
60.0349
56.4275
51.7748
46.8273
42.3837
39.1436
37.5675
37.7867
39.5699
42.3333
45.2559
47.4952
48.4742
48.0241
46.3812
44.0776
41.7823
40.1713
39.6782
40.3678
41.8851
43.6683
45.1302
45.8749
45.707
44.6539
42.9475
40.9756
39.2186
38.1384
38.0553
39.1234
41.3487
44.4992
47.997
51.0142
52.6518
52.2349
49.567
45.0081
39.3947
33.8864
29.6372
27.4304
27.397
28.9736
31.1307
32.787
33.1733
32.0741
29.7682
26.9199
24.3022
22.5273
21.7823
21.8368
22.3319
23.1058
24.4169
26.9456
31.5454
38.8504
48.8886
60.7086
72.2829
80.7672
83.1264
77.0026
61.4403
37.2914
7.22149
-24.7286
-53.8762
-75.8804
-87.7175
-88.2751
-78.4795
-60.9309
-39.194
-16.9842
2.53174
17.3509
26.8677
31.7093
33.2823
33.1872
32.7639
32.8628
33.7415
35.1525
36.5265
37.3206
37.2488
36.4167
35.1876
33.9734
33.1291
32.8287
33.0341
33.5331
34.0197
34.2969
34.4014
34.5992
35.2695
36.65
38.7545
41.4072
44.2841
47.0185
49.3638
51.3491
53.3382
55.9127
59.623
64.7082
70.9587
77.747
84.1787
89.3149
92.4075
93.0972
91.5967
88.5797
84.9116
81.3589
78.4059
76.1771
74.4813
72.9187
70.9694
68.2619
64.6826
60.3748
55.69
50.9852
46.5591
42.6697
39.4833
37.076
35.3788
34.2423
33.4734
32.8767
32.2198
31.1692
29.4548
26.9657
23.8565
20.529
17.538
15.4855
14.8765
15.9768
18.6825
22.4642
26.5346
30.1242
32.7188
34.1614
34.6667
34.7591
35.0897
36.2554
38.571
41.9072
45.8187
49.6927
52.966
55.2741
56.5059
56.7886
56.4866
56.0659
55.8917
56.0841
56.5248
56.9314
56.9734
56.384
54.9616
52.7303
49.9604
47.0978
44.6123
42.7788
41.6077
40.8874
40.231
39.2122
37.5179
35.0711
32.144
29.3124
27.2568
26.4529
27.0642
28.8625
31.3396
33.8587
35.806
36.8118
36.8774
36.3379
35.6675
35.1835
34.9666
34.8394
34.5066
33.688
32.2568
30.3864
28.5453
27.3997
27.5151
29.0346
31.6616
34.6873
37.2645
38.6279
38.3684
36.5907
33.9599
31.5178
30.3167
31.0807
33.9603
38.5136
43.8817
48.9988
52.8371
54.7054
54.4404
52.4111
49.366
46.1023
43.2824
41.3167
40.3472
40.1986
40.5639
41.1263
41.6626
42.1438
42.6259
43.0529
43.2071
42.7128
41.1781
38.3677
34.3269
29.5327
24.9806
21.9767
21.7774
25.0715
31.6495
40.2978
48.9519
55.059
56.1297
50.3818
37.2877
17.8504
-5.54536
-29.6439
-50.955
-66.4122
-73.9114
-72.7243
-63.5578
-48.3144
-29.5746
-10.0218
8.01371
22.9052
33.8787
41.0094
45.0554
47.1315
48.3317
49.4998
51.0913
53.1993
55.644
58.0607
60.0483
61.3451
62.0137
62.2576
62.3657
62.5859
63.0073
63.5854
64.1467
64.3852
63.9902
62.7441
60.645
57.9109
54.8189
51.6185
48.5888
46.0104
44.1351
43.1637
43.1973
44.2524
46.2391
48.9048
51.7619
54.156
55.4483
55.2132
53.3566
50.1352
46.0675
41.8739
38.3189
35.9788
35.061
35.3844
36.4821
37.7776
38.6875
38.7104
37.5106
34.9946
31.3296
26.8874
22.1334
17.5514
13.5917
10.6461
8.97624
8.66274
9.53999
11.272
13.5613
16.1009
18.6267
20.9104
22.7861
24.2178
25.2419
25.8967
26.1884
26.1404
25.8397
25.4262
25.0232
24.68
24.45
24.428
24.7363
25.4651
26.6594
28.3088
30.3755
32.7541
35.21
37.3975
38.9818
39.7964
39.8777
39.4455
38.8452
38.5027
38.8148
40.0276
42.0923
44.7024
47.3732
49.6405
51.1736
51.7763
51.4099
50.2242
48.5002
46.5704
44.7302
43.162
41.9702
41.215
40.8925
40.9297
41.0885
41.0833
40.7187
39.9274
38.802
37.5698
36.5337
36.0822
36.5009
37.8264
39.7675
41.8305
43.5317
44.5044
44.6158
43.9434
42.7678
41.4897
40.5283
40.1164
40.2913
40.968
42.0843
43.6444
45.687
48.1813
50.9877
53.8669
56.4392
58.1788
58.5761
57.3131
54.3881
50.1784
45.2994
40.4222
36.1174
32.7991
30.6641
29.6452
29.4649
29.808
30.3979
31.006
31.433
31.4552
30.9042
29.7994
28.4369
27.4447
27.6552
29.9831
35.1471
43.3359
53.8267
64.8449
73.7786
77.7451
74.2727
61.9893
41.1093
13.6351
-16.8552
-45.9011
-69.1274
-83.2705
-86.7762
-80.0362
-65.1551
-45.3838
-24.3492
-5.21947
9.91225
20.2859
26.286
28.9845
29.7261
29.7435
29.8758
30.4459
31.3604
32.3355
33.142
33.7653
34.3647
35.1041
36.1054
37.4033
38.8761
40.2455
41.1265
41.1916
40.3067
38.5916
36.3501
33.9587
31.8304
30.3779
29.926
30.6027
32.2901
34.6348
37.1512
39.3518
40.8099
41.252
40.7295
39.6162
38.5772
38.3337
39.3384
41.6294
44.7981
48.1081
50.6784
51.7015
50.7745
48.105
44.4183
40.7463
38.067
36.9457
37.4446
39.1512
41.3166
43.0354
43.5621
42.6126
40.4191
37.5711
34.7852
32.6987
31.7376
32.0362
33.4383
35.4901
37.6585
39.5208
40.8812
41.7609
42.2709
42.6087
42.9472
43.4407
44.1436
44.9607
45.7687
46.4987
47.2244
48.095
49.2295
50.6485
52.2981
54.0213
55.5708
56.6165
56.8901
56.2646
54.8155
52.7801
50.4228
48.0089
45.7766
43.9736
42.7924
42.2822
42.3828
42.9669
43.8448
44.8102
45.655
46.1694
46.2724
46.0688
45.7791
45.5921
45.5811
45.7223
45.9538
46.1228
46.0328
45.5365
44.6084
43.3632
41.9948
40.6349
39.336
38.101
36.9615
35.9864
35.2123
34.7209
34.5861
34.8945
35.6773
36.8089
38.0721
39.2085
40.0473
40.4961
40.5191
40.1002
39.3172
38.3522
37.4389
36.8003
36.5972
36.9818
38.0504
39.7389
41.7973
43.8258
45.369
46.0992
45.9177
44.8935
43.2968
41.5736
40.2085
39.5977
39.8713
40.8843
42.3152
43.8631
45.319
46.6324
47.9176
49.4048
51.3536
53.8452
56.6277
59.1524
60.7934
61.1273
60.1748
58.4831
57.0837
57.2954
60.3044
66.6533
75.8422
86.1669
94.996
99.3551
96.6103
85.1705
65.0371
38.01
7.48445
-22.2445
-46.8947
-63.1563
-69.3286
-65.5524
-53.7034
-36.8533
-18.5256
-1.83755
11.1642
19.6819
24.086
25.4985
25.3504
24.911
25.0278
25.9316
27.3485
28.823
29.9719
30.6073
30.7141
30.4085
29.8497
29.2391
28.7427
28.4795
28.5256
28.9784
29.9651
31.5452
33.617
35.8671
37.9619
39.6575
40.93
41.9255
42.9072
44.1728
45.9367
48.1905
50.7023
53.0274
54.7887
55.8738
56.4701
56.963
0
0
-2e-006
-2.5e-005
-9.1e-005
-0.000225
-0.00044
-0.000749
-0.001138
-0.001568
-0.001972
-0.002261
0.001449
0.03699
0.102546
0.172161
0.193072
0.150628
0.023436
-0.156832
-0.332877
-0.429904
-0.348886
-0.032291
0.47012
0.971132
1.21528
0.991506
0.214198
-1.00513
-2.33381
-3.21944
-2.99691
-1.0795
2.85158
8.71598
15.9801
23.7683
31.0439
36.8105
40.3436
41.3746
40.16
37.3739
33.8946
30.5658
28.0088
26.5117
26.0488
26.3402
26.9776
27.6279
28.1035
28.379
28.5006
28.5169
28.4171
28.1628
27.7173
27.0879
26.3646
25.7326
25.4446
25.7284
26.6218
27.9231
29.2392
30.1927
30.5099
30.1672
29.3624
28.4775
27.9863
28.2586
29.3839
31.0721
32.7934
34.0121
34.3634
33.7637
32.414
30.7701
29.4293
28.9067
29.4617
30.9713
33.0214
35.0792
36.6689
37.4622
37.3371
36.411
35.0105
33.5545
32.4033
31.7342
31.5614
31.7945
32.2913
32.8915
33.3599
33.5164
33.2806
32.6958
31.8525
30.8728
29.9229
29.1892
28.8473
28.9725
29.504
30.2495
30.9979
31.561
31.8087
31.6605
31.1465
30.3891
29.6148
29.0502
28.8055
28.8853
29.2725
29.9183
30.7885
31.7996
32.8704
33.9509
35.0127
35.9588
36.5799
36.6252
35.8929
34.22
31.4924
27.5501
22.2422
15.5306
7.56935
-1.22813
-10.1867
-18.3291
-24.4978
-27.5533
-26.7074
-21.8245
-13.4775
-2.79447
8.77526
19.8228
29.202
36.2973
41.0551
43.8743
45.2711
45.6169
45.0957
43.7545
41.6296
38.8811
35.8221
32.9155
30.6774
29.5118
29.5816
30.7317
32.6442
34.9585
37.4844
40.1556
42.9304
45.7296
48.3827
50.6325
52.1895
52.7958
52.4078
51.2815
49.967
49.1081
49.1565
50.2703
52.2812
54.7357
57.0238
58.5364
58.8378
57.8718
55.9596
53.6728
51.617
50.3037
50.0062
50.7185
52.1181
53.6201
54.5336
54.3162
52.7268
49.8802
46.1545
42.1431
38.4765
35.7083
34.1153
33.5718
33.623
33.6989
33.2876
32.0898
30.0639
27.4962
24.965
23.2042
22.8485
24.189
27.1177
31.1451
35.5543
39.5511
42.4237
43.786
43.657
42.4933
40.959
39.67
39.0107
39.0657
39.6615
40.4408
40.9556
40.8662
40.0982
38.8785
37.5819
36.592
36.1386
36.3135
37.0759
38.2349
39.4859
40.534
41.2062
41.4756
41.4386
41.2263
40.9317
40.6279
40.3485
40.0475
39.5739
38.7521
37.5097
35.9349
34.2956
32.8837
31.9549
31.6574
32.0124
32.8966
34.0339
35.1256
35.9844
36.6147
37.1074
37.4754
37.6044
37.3241
36.4845
35.075
33.2725
31.4818
30.3068
30.3774
32.0842
35.3797
39.7464
44.3855
48.5329
51.6158
53.3561
53.803
53.2618
52.1761
50.8885
49.5766
48.2461
46.8615
45.5059
44.3348
43.4761
42.9601
42.7262
42.6432
42.5841
42.4626
42.3257
42.3709
42.8527
43.8412
45.0162
45.7005
45.1224
42.7758
38.7984
34.1206
30.4101
29.6674
33.5582
42.6978
56.036
70.8454
83.2333
89.1395
85.4437
70.9327
46.7606
16.4003
-15.103
-42.3813
-61.0686
-68.7786
-65.5012
-53.3518
-35.8381
-16.9245
-0.058883
12.5242
20.1087
23.2579
23.3194
21.8575
20.2341
19.3935
19.7593
21.2744
23.5566
26.0983
28.456
30.2547
31.2437
31.2832
30.4357
28.9935
27.4342
26.2419
25.8079
26.3409
27.8506
30.1332
32.7675
35.2839
37.3445
38.8855
40.084
41.2521
42.6377
44.3819
46.4119
48.4663
50.1346
51.0231
50.9739
50.1609
49.0206
48.1084
47.8305
48.3103
49.4093
50.7588
51.8607
52.2937
51.8865
50.8242
49.5515
48.5431
48.1202
48.3803
49.1643
50.1324
50.8617
50.9307
50.1243
48.4907
46.3341
44.0483
42.0027
40.4817
39.647
39.4764
39.7905
40.2766
40.6088
40.5924
40.1842
39.4374
38.4814
37.4944
36.7006
36.2776
36.2795
36.6016
37.0474
37.4021
37.4823
37.1528
36.2836
34.8768
33.0898
31.1995
29.5194
28.2903
27.6879
27.8149
28.6821
30.1463
31.9343
33.731
35.3021
36.544
37.435
37.9801
38.2416
38.3419
38.3982
38.473
38.5149
38.431
38.132
37.6161
36.9386
36.1937
35.5938
35.4348
35.9923
37.3479
39.309
41.4646
43.2949
44.3605
44.4177
43.5084
41.9705
40.3725
39.3113
39.1073
39.6883
40.6306
41.4163
41.6097
41.0526
39.9226
38.6926
37.9838
38.3278
39.8814
42.3103
44.9406
47.0258
48.0226
47.7443
46.3975
44.5261
42.8213
41.9203
42.1038
43.1934
44.6901
45.9749
46.5426
46.1194
44.6884
42.4966
39.9693
37.5601
35.6234
34.3
33.5809
33.4328
33.8288
34.6827
35.7527
36.6545
36.9899
36.4025
34.7542
32.285
29.7764
28.4713
29.7851
34.8112
43.6975
55.3906
67.6137
77.2791
81.0957
76.431
62.0843
38.8357
9.4166
-22.0614
-50.9997
-73.2979
-86.1317
-88.4312
-81.001
-66.162
-47.0734
-26.9688
-8.49456
6.61432
17.5895
24.5649
28.2866
29.8298
30.2538
30.3123
30.4371
30.7708
31.2802
31.797
32.1624
32.2832
32.2176
32.1842
32.445
33.1164
34.1732
35.4702
36.7788
37.8361
38.4193
38.4341
38.0239
37.5086
37.247
37.4778
38.239
39.3903
40.6501
41.7163
42.2742
42.1745
41.5091
40.615
39.9237
39.7679
40.2799
41.4043
42.92
44.4631
45.5997
45.9783
45.459
44.1442
42.3023
40.2153
38.125
36.2068
34.6058
33.4439
32.7557
32.6072
33.0884
34.2907
36.2108
38.6242
41.1399
43.2944
44.7303
45.2617
44.9544
44.0948
43.143
42.5809
42.7952
43.781
45.2411
46.7059
47.6978
47.8831
47.1321
45.5636
43.5281
41.5222
39.9849
39.1506
38.9651
39.2218
39.6164
39.8586
39.7141
39.0963
38.1326
37.1591
36.6038
36.7916
37.8674
39.7873
42.3381
45.1551
47.7396
49.5877
50.3406
49.8964
48.3688
46.0211
43.2154
40.3715
37.9102
36.159
35.1941
34.912
35.0714
35.4123
35.7461
35.978
36.1441
36.4273
37.1028
38.3888
40.26
42.4207
44.3827
45.6042
45.7335
44.6241
42.4674
39.8085
37.4216
36.021
36.0172
37.3285
39.4942
41.8817
43.8248
44.8815
44.9267
44.2363
43.3524
42.828
42.9472
43.6581
44.6221
45.4254
45.7541
45.4824
44.7434
43.9051
43.4289
43.6448
44.556
45.8557
47.0488
47.7298
47.6654
46.8816
45.6031
44.1683
42.942
42.1539
41.7793
41.6498
41.5843
41.5325
41.5875
41.8575
42.3181
42.8179
43.1032
42.9217
42.1581
41.0674
40.3398
41.0584
44.303
50.6246
59.5956
69.6768
78.4428
82.957
80.575
69.6404
50.1424
23.9811
-5.41917
-33.7859
-56.9318
-71.6094
-76.0711
-70.3549
-56.1914
-36.4882
-14.6467
6.18154
23.5935
36.1388
43.409
45.9744
45.099
42.3728
39.312
37.0725
36.2776
37.054
39.0687
41.653
44.0417
45.623
46.146
45.7338
44.7402
43.6059
42.7311
42.407
42.7257
43.5398
44.5129
45.3127
45.714
45.6698
45.2117
44.4469
43.5305
42.6466
41.9912
41.6813
41.7198
42.0459
42.6031
43.2709
43.9092
44.3526
44.4834
44.3325
44.0533
43.8796
44.0005
44.5321
45.4954
46.7642
48.0444
48.9276
49.0442
48.246
46.6506
44.5477
42.3096
40.3407
38.9529
38.275
38.2165
38.4606
38.6069
38.3728
37.6327
36.4105
34.8212
33.1115
31.6125
30.6387
30.3927
30.892
31.967
33.3537
34.6988
35.6098
35.71
34.8209
33.0327
30.7288
28.4639
26.8037
26.2105
26.9007
28.8155
31.5765
34.5644
37.1247
38.7707
39.3061
38.8179
37.5886
36.0375
34.6242
33.7133
33.4893
33.8662
34.6279
35.528
36.3522
36.9883
37.3746
37.5176
37.4781
37.3306
37.0306
36.4154
35.3152
33.667
31.5778
29.3196
27.2209
25.6034
24.7372
24.751
25.5743
26.8995
28.3497
29.6278
30.5598
31.0914
31.2393
31.1057
30.8665
30.7604
31.0189
31.7856
33.173
35.259
38.0253
41.3287
44.8224
48.0563
50.5956
52.1416
52.5558
51.8721
50.352
48.4091
46.534
45.1179
44.3034
44.0167
44.0513
44.161
44.1466
43.8729
43.3784
42.8335
42.4197
42.233
42.1426
41.8572
41.1128
39.9194
38.6399
38.0333
39.1382
42.9395
49.9348
59.6826
70.5713
80.0172
85.0573
83.1406
72.8468
54.3839
29.7025
2.18675
-24.1113
-45.4333
-59.1449
-64.152
-60.9419
-51.2227
-37.3943
-22.0129
-7.23488
5.50448
15.5579
22.9294
27.9551
31.1838
33.1788
34.4342
35.2527
35.7069
35.7431
35.2817
34.3343
33.0916
31.8034
30.8105
30.4766
31.0313
32.457
34.3835
36.2292
37.3921
37.5143
36.5986
35.0173
33.4034
32.4895
32.8817
34.8091
37.9868
41.7919
45.4952
48.6076
50.9567
52.7042
54.2463
56.0518
58.4671
61.5303
64.9311
68.15
70.7138
72.3807
73.1681
73.2559
72.8912
72.2998
71.5939
70.7432
69.5842
67.9461
65.7671
63.1553
60.3157
57.3689
54.4045
51.4462
48.5453
45.8129
43.385
41.4239
40.0891
39.4964
39.6204
40.216
40.937
41.4875
41.7092
41.5969
41.1686
40.4421
39.3723
37.9135
36.0211
33.7053
31.1328
28.7022
27.0016
26.6209
27.8774
30.7256
34.6947
39.0868
43.06
45.8283
46.9072
46.2529
44.2993
41.7809
39.4845
38.0408
37.8052
38.8125
40.7755
43.1237
45.1916
46.4316
46.5736
45.6471
43.884
41.6478
39.33
37.2586
35.6245
34.4008
33.4745
32.7723
32.3604
32.4428
33.1987
34.6897
36.79
39.2318
41.5669
43.2696
43.8925
43.2417
41.4819
39.0474
36.4695
34.2665
32.8472
32.4994
33.3135
35.2075
37.9411
41.1945
44.6621
48.0242
50.925
53.0499
54.1618
-2e-006
-1.7e-005
-4.9e-005
-7.4e-005
-4.4e-005
0.000102
0.000426
0.000983
0.001781
0.002746
0.006582
0.031497
0.051901
0.008315
-0.129712
-0.336885
-0.513162
-0.554287
-0.34973
0.136681
0.818917
1.4552
1.67597
1.15256
-0.203005
-2.07947
-3.75307
-4.31802
-3.02906
0.317777
5.12419
9.91463
12.5925
11.0358
3.77698
-9.3393
-26.9081
-46.1454
-63.512
-75.5772
-79.8377
-75.3882
-63.0767
-45.2508
-25.0294
-5.50365
10.9636
23.1128
30.7982
34.8059
36.4003
36.9144
37.3786
38.3469
39.9175
41.8539
43.7274
45.0176
45.2897
44.3152
42.1831
39.3317
36.4178
34.166
33.2408
34.1125
36.8785
41.1691
46.2207
51.0987
54.9891
57.3756
58.1306
57.4902
55.9827
54.2941
53.0511
52.6239
53.0541
54.138
55.5803
57.0934
58.4408
59.4831
60.1558
60.513
60.6191
60.4807
60.0028
59.0763
57.6811
55.8568
53.7354
51.4344
49.0948
46.8543
44.8131
42.9931
41.2855
39.6195
37.9673
36.3879
34.951
33.6825
32.5615
31.5843
30.7643
30.0943
29.5612
29.2093
29.134
29.4244
30.0518
30.8059
31.3703
31.4689
30.9391
29.8184
28.3382
26.8792
25.9081
25.7794
26.5584
27.9262
29.2857
30.0324
29.7498
28.3224
25.9921
23.3488
21.1576
20.1129
20.6038
22.5577
25.5325
28.9033
32.068
34.6134
36.3147
37.2425
37.7019
38.0826
38.6897
39.6399
40.9128
42.4194
44.0684
45.7799
47.4505
48.9965
50.352
51.4751
52.2958
52.7175
52.6962
52.2615
51.5597
50.7865
50.06
49.482
49.142
49.1567
49.604
50.4846
51.7912
53.461
55.3988
57.388
59.1288
60.3157
60.7236
60.2921
59.0792
57.1959
54.7787
52.0078
49.0694
46.0874
43.0991
40.1386
37.2893
34.6841
32.4897
30.784
29.6367
29.0909
29.1569
29.811
30.8035
31.7177
32.0633
31.4345
29.5794
26.634
23.2563
20.6251
20.2187
23.3217
30.4987
41.1953
53.661
65.218
72.7698
73.5412
65.8808
49.785
27.047
0.908568
-24.7091
-46.0035
-60.0414
-65.2541
-61.6746
-50.7941
-35.0438
-17.224
0.116602
15.0105
26.2298
33.414
36.8959
37.542
36.4455
34.6528
32.995
32.0507
32.0967
33.1324
34.9008
37.0028
39.016
40.5893
41.4787
41.4953
40.584
38.8626
36.6124
34.2325
32.0611
30.3304
29.1835
28.6487
28.6038
28.8794
29.301
29.8161
30.5577
31.7091
33.4028
35.616
38.1745
40.7951
43.0952
44.6693
45.2159
44.6931
43.3342
41.5472
39.7407
38.2428
37.2374
36.7937
36.8538
37.2436
37.7995
38.4562
39.2552
40.297
41.579
43.0277
44.4773
45.7366
46.612
46.9171
46.5665
45.6405
44.385
43.1076
42.0188
41.1906
40.5284
39.8331
38.8651
37.3948
35.3337
32.8439
30.3506
28.4069
27.4803
27.8144
29.4175
32.0026
35.062
37.9842
40.2369
41.5518
42.0642
42.1926
42.4579
43.2688
44.8416
47.101
49.6869
52.03
53.5939
54.0867
53.6204
52.6184
51.6332
51.1569
51.4366
52.4448
53.8776
55.1982
55.878
55.6343
54.5174
52.8546
51.0526
49.4293
48.1452
47.1794
46.3476
45.3716
44.0349
42.2788
40.2691
38.2886
36.5639
35.2045
34.2279
33.5905
33.2405
33.0475
32.9432
32.8641
32.7972
32.7544
32.6911
32.5499
32.3489
32.2116
32.315
32.7632
33.5517
34.525
35.4845
36.1886
36.4272
36.0808
35.2308
34.1455
33.1759
32.5605
32.3869
32.598
33.0965
33.7851
34.5977
35.5298
36.6296
37.9476
39.3803
40.6052
41.1324
40.5241
38.6456
35.8551
32.9994
31.2643
31.9102
35.8747
43.2697
53.0754
63.1468
70.5858
72.4347
66.4071
51.5403
28.5696
0.05355
-30.0647
-57.2149
-77.2948
-87.4607
-86.7689
-76.236
-58.5231
-37.3556
-16.5998
0.592844
12.4183
18.601
20.1479
18.8181
16.5698
15.0432
15.1237
16.8513
19.5924
22.3931
24.4485
25.3322
25.0343
23.9277
22.6229
21.8176
22.0687
23.6122
26.3293
29.8826
33.8392
37.6947
40.9813
43.3162
44.4992
44.5658
43.7592
42.4117
40.8522
39.3371
38.0974
37.2538
36.8278
36.7485
36.9499
37.4136
38.135
39.0364
39.9062
40.491
40.6128
40.2711
39.6425
39.0289
38.7767
39.1854
40.333
41.8826
43.2036
43.5704
42.485
39.8721
36.1497
32.069
28.5547
26.4348
26.1532
27.5607
30.0074
32.6049
34.5946
35.5529
35.5002
34.7974
33.994
33.6464
34.1114
35.3935
37.1349
38.8293
40.0347
40.5175
40.2915
39.5851
38.7739
38.3545
38.733
40.0938
42.3353
45.0799
47.864
50.17
51.6141
51.928
51.1194
49.4568
47.4262
45.5262
44.1406
43.4578
43.5117
44.1783
45.2043
46.2464
46.9848
47.2082
46.8389
45.8491
44.246
42.0787
39.5128
36.8023
34.2574
32.1687
30.7971
30.3445
30.9317
32.4428
34.5333
36.7126
38.4638
39.3499
39.1004
37.5936
34.9531
31.5585
27.9734
24.7952
22.4853
21.2845
21.2389
22.1862
23.7891
25.6173
27.2783
28.5921
29.5817
30.3951
31.1981
32.0853
33.0693
34.0624
34.9514
35.5576
35.7947
35.7267
35.565
35.5153
35.6877
36.0482
36.4865
36.8571
37.0118
36.8001
36.1828
35.2034
33.9911
32.6669
31.2778
29.8603
28.5345
27.5234
27.0982
27.4343
28.5408
30.215
32.0562
33.4969
33.994
33.3057
31.7247
30.1556
29.8947
32.1919
37.7997
46.6024
57.3672
67.7544
74.6991
75.1263
66.817
49.0919
23.1335
-8.12989
-40.4954
-69.2913
-90.3392
-100.859
-99.9984
-88.8816
-70.2634
-47.7883
-25.2308
-5.7559
8.5985
17.1971
20.7001
20.6238
18.7915
16.8516
15.9608
16.6255
18.7234
21.6135
24.5183
26.7883
28.1528
28.6863
28.6987
28.6131
28.8239
29.5831
30.9164
32.6529
34.5047
36.2596
37.8344
39.2509
40.5305
41.6694
42.6135
43.3056
43.6952
43.7585
43.5553
43.2955
43.3157
43.9104
45.1993
47.0821
49.3142
51.5277
53.309
54.2438
54.0316
52.586
50.1181
47.0405
43.862
41.1723
39.456
39.0389
39.9235
41.7588
43.9252
45.7279
46.6662
46.5616
45.5559
44.1173
42.8789
42.4117
43.0261
44.5854
46.568
48.3008
49.2478
49.1284
48.0363
46.3685
44.7414
43.7562
43.8098
44.923
46.7702
48.8821
50.7964
52.181
52.8476
52.7805
52.0686
50.9095
49.4967
47.9321
46.2874
44.6313
43.0933
41.8094
40.8488
40.1606
39.6729
39.2892
38.9173
38.5145
38.0473
37.5598
37.2099
37.1397
37.3431
37.7385
38.1733
38.5615
38.897
39.2032
39.5821
40.17
41.1225
42.5077
44.2198
46.0033
47.5774
48.7128
49.2713
49.1976
48.4962
47.2735
45.7556
44.2235
42.9445
42.1044
41.8488
42.2275
43.1681
44.3808
45.4181
45.8381
45.3646
43.9253
41.6704
38.9489
36.2121
33.9219
32.3789
31.6285
31.4755
31.5911
31.7065
31.6969
31.5856
31.5259
31.715
32.352
33.5032
35.0462
36.6241
37.8182
38.3328
38.0352
36.9558
35.2948
33.3703
31.5854
30.283
29.5513
29.2186
28.9449
28.3915
27.271
25.4818
23.145
20.697
18.7739
18.0276
18.8853
21.3837
25.1412
29.4595
33.5299
36.5865
38.1562
38.2691
37.5375
37.0144
37.8552
40.9862
46.8235
55.0444
64.4638
73.1135
78.5587
78.4111
70.9447
55.5451
33.0131
5.55344
-23.5243
-50.3193
-71.145
-83.298
-85.5759
-78.4795
-63.9534
-44.8942
-24.4956
-5.61233
9.79435
20.9163
27.9505
31.7436
33.36
33.7679
33.6813
33.5245
33.4598
33.5018
33.711
34.2614
35.3484
37.0521
39.2466
41.6407
43.8626
45.5769
46.5285
46.6217
45.9692
44.8499
43.6442
42.6748
42.1067
41.9697
42.2397
42.859
43.6986
44.5463
45.1935
45.4907
45.3522
44.7537
43.7566
42.5324
41.4042
40.7312
40.7418
41.4581
42.6455
43.9499
44.9661
45.3411
44.8731
43.6066
41.8889
40.2054
39.0388
38.6383
39.0327
40.0805
41.4832
42.8619
43.8374
44.1851
43.894
43.141
42.1974
41.2772
40.5525
40.11
39.9492
39.9436
39.8801
39.567
38.961
38.2192
37.5969
37.3701
37.8166
39.1128
41.2745
44.0909
47.0891
49.7027
51.4253
51.9314
51.1459
49.2431
46.6145
43.8657
41.645
40.406
40.3051
41.1664
42.593
44.0862
45.1758
45.5295
45.0477
43.9493
42.6286
41.5017
40.7801
40.4808
40.4719
40.5578
40.5729
40.3935
40.035
39.6799
39.5069
39.5687
39.6728
39.5131
38.7828
37.3319
35.2604
32.8708
30.6618
29.1855
28.8497
29.7488
31.6017
33.8642
35.9191
37.3033
37.8099
37.4655
36.5811
35.6136
35.0434
35.2088
36.1538
37.6993
39.512
41.2149
42.4342
42.8938
42.4623
41.2175
39.4583
37.5505
35.8245
34.5154
33.752
33.5369
33.7346
34.0634
34.1803
33.8329
32.9357
31.5728
29.9449
28.3975
27.3227
27.1089
27.9514
29.759
32.1405
34.5521
36.4176
37.2934
36.92
35.3835
33.1059
30.7439
28.9656
28.2062
28.617
30.0535
32.1568
34.4797
36.6143
38.2793
39.3663
39.859
39.7539
38.9245
37.2285
34.6506
31.4695
28.3181
26.0962
25.7975
28.2457
33.7563
41.8365
51.0798
59.3697
64.3024
63.787
56.5558
42.4794
22.8217
0.129231
-22.1891
-40.5493
-51.9324
-54.5107
-48.0107
-33.6913
-14.1189
7.41403
27.6345
44.003
55.2395
61.3651
63.4758
63.2196
62.2983
62.0171
62.9404
64.8735
67.1174
68.8694
69.6368
69.3202
68.2121
66.861
65.8696
65.6808
66.4224
67.8608
69.5053
70.8352
71.4698
71.2388
70.1425
68.3074
65.9622
63.3743
60.7363
58.1516
55.6657
53.336
51.3151
49.7737
48.84
48.5386
48.7957
49.4681
50.338
-2e-006
-2e-005
-6.3e-005
-0.000148
-0.000309
-0.000574
-0.000957
-0.001442
-0.00199
-0.002536
0.000355
0.02835
0.06154
0.100814
0.158358
0.201433
0.191503
0.090457
-0.088031
-0.285411
-0.415041
-0.378284
-0.119391
0.360891
0.936955
1.36071
1.31137
0.580766
-0.770304
-2.37309
-3.55671
-3.47537
-1.3288
3.39573
10.6835
19.9328
30.0396
39.6677
47.6326
53.2011
56.2105
57.06
56.573
55.7468
55.4005
55.9858
57.4762
59.4923
61.4809
62.8924
63.3187
62.5869
60.7774
58.1645
55.0945
51.9119
48.874
46.1689
43.9216
42.2241
41.1433
40.6953
40.8495
41.545
42.6751
43.9886
45.1466
45.775
45.5932
44.4551
42.3472
39.4276
35.9954
32.4769
29.315
26.8095
25.0488
23.9637
23.4293
23.2548
23.1975
23.0514
22.6962
22.1789
21.6555
21.3398
21.4328
22.08
23.4085
25.4525
28.0773
30.9393
33.6256
35.7974
37.2049
37.7559
37.4952
36.6475
35.5829
34.6769
34.1806
34.1551
34.548
35.2328
36.0555
36.9114
37.7178
38.4695
39.2005
39.9532
40.7149
41.2986
41.5097
41.1888
40.2569
38.7074
36.6216
34.2108
31.8241
29.8367
28.5087
27.9451
28.0502
28.5288
28.9471
28.7765
27.5539
25.1273
21.8679
18.7319
17.0672
18.2603
23.2824
32.2838
44.2307
56.8281
66.866
70.9661
66.5123
52.3872
29.4336
0.332952
-30.844
-59.4542
-81.3601
-93.7613
-95.7094
-88.081
-73.1307
-53.8641
-33.3615
-14.2629
1.63587
13.4987
21.3153
25.6722
27.447
27.6178
27.1262
26.7207
26.8381
27.5053
28.5012
29.5397
30.3949
31.0088
31.4951
32.1342
33.2606
35.0506
37.3481
39.6614
41.3256
41.7513
40.6295
38.0708
34.571
30.9331
28.0139
26.4986
26.7105
28.4969
31.3314
34.5824
37.7046
40.3596
42.3974
43.8732
44.9513
45.7766
46.3926
46.6873
46.5206
45.9321
45.1334
44.4952
44.3807
45.025
46.4524
48.3922
50.2805
51.407
51.1391
49.203
45.7747
41.4417
36.9704
33.1297
30.537
29.4959
29.9483
31.5044
33.6376
35.8885
37.9326
39.5599
40.5735
40.7954
40.0869
38.4059
35.8245
32.5723
29.0585
25.8391
23.4412
22.1808
21.9694
22.4381
23.0589
23.3542
23.0956
22.3559
21.482
21.0064
21.4165
22.9351
25.3754
28.2243
30.8918
32.9126
34.0963
34.5332
34.5592
34.6557
35.2366
36.4824
38.2363
40.0543
41.4392
41.9991
41.5127
39.9816
37.6312
34.8958
32.3
30.3475
29.32
29.2864
30.126
31.5628
33.1919
34.5445
35.254
35.162
34.3958
33.3279
32.3491
31.8014
31.8788
32.563
33.5636
34.4118
34.6429
34.0181
32.6212
30.8388
29.1623
28.1109
28.0673
29.1426
31.1472
33.591
35.8397
37.3306
37.7382
37.0295
35.4084
33.2259
30.9795
29.1748
28.1676
28.0536
28.7024
29.8132
30.9903
31.8452
32.0512
31.3988
29.8972
27.8145
25.5423
23.4535
21.8343
20.8825
20.7077
21.3086
22.5733
24.3435
26.4673
28.7999
31.0951
32.9731
33.9774
33.7227
32.1344
29.5894
26.8879
25.2092
25.8901
29.9808
37.7524
48.3169
59.5829
68.6104
72.2444
67.8481
54.0399
31.21
1.65183
-30.7798
-61.4497
-85.9658
-101.052
-105.143
-98.5603
-83.3045
-62.5586
-39.9424
-18.7192
-1.22296
11.3421
18.8564
22.089
22.3779
21.2587
20.1245
19.9349
21.1073
23.5363
26.7474
30.028
32.5692
33.7212
33.2194
31.299
28.5877
25.9259
24.0999
23.6702
24.8405
27.3877
30.752
34.2443
37.3093
39.7343
41.6063
43.1402
44.5096
45.7498
46.7158
47.1193
46.6601
45.1974
42.9147
40.4066
38.4701
37.8501
38.9781
41.8414
46.0089
50.7111
54.9987
58.0031
59.2125
58.6509
56.7913
54.3659
52.1452
50.7267
50.435
51.1902
52.5329
53.7714
54.2536
53.5582
51.5783
48.4948
44.7396
40.848
37.3938
34.8422
33.4266
33.1472
33.8521
35.327
37.3348
39.628
41.9033
43.8701
45.3321
46.1266
46.1149
45.2168
43.4929
41.2079
38.7527
36.5549
34.9941
34.3407
34.7394
36.1545
38.3274
40.8351
43.2216
45.1628
46.5246
47.3301
47.7099
47.8633
47.9737
48.1006
48.1147
47.7446
46.7444
45.0916
43.0161
40.9543
39.419
38.8098
39.3596
40.9701
43.2035
45.3914
46.9236
47.4775
47.0934
46.1221
45.1044
44.5531
44.8296
45.9984
47.7541
49.5316
50.7124
50.886
49.9553
48.1089
45.7753
43.4645
41.7134
40.9029
41.1453
42.2909
44.005
45.9229
47.6891
48.989
49.5897
49.3662
48.365
46.7995
44.9477
43.0824
41.4522
40.2452
39.5358
39.228
39.0684
38.8053
38.3401
37.7563
37.2887
37.2581
37.9943
39.7202
42.4493
45.8998
49.5113
52.6252
54.7261
55.5298
55.0317
53.4438
51.1519
48.6185
46.2366
44.212
42.5358
41.0966
39.838
38.8403
38.2649
38.2902
39.0184
40.4315
42.319
44.2514
45.7559
46.5323
46.6989
46.8772
47.9991
51.0208
56.5338
64.4195
73.6135
82.0981
87.2236
86.3633
77.6796
60.747
36.8243
8.72718
-19.6355
-44.0463
-60.8677
-67.898
-64.8099
-53.0817
-35.4984
-15.4799
3.65998
19.3436
30.1475
35.8838
37.3657
35.9865
33.2018
30.2625
28.0273
26.939
27.023
28.001
29.4859
31.1142
32.6401
33.9291
34.9244
35.6738
36.3505
37.2241
38.5326
40.373
42.6749
45.2236
47.7135
49.7694
51.0312
51.3234
50.7197
49.5693
48.3233
47.3824
46.9767
47.1618
47.8021
48.6168
49.1923
49.2398
48.7025
47.7548
46.749
46.0342
45.8849
46.4134
47.5553
49.0275
50.3694
51.1167
50.9785
49.9096
48.1108
45.9085
43.6939
41.8601
40.6696
40.1524
40.029
39.8403
39.0889
37.4797
34.9607
31.8122
28.5965
26.0345
24.7741
25.1051
26.7768
29.0675
31.0303
31.8787
31.25
29.3207
26.8434
24.8861
24.4962
26.2357
29.9194
34.7181
39.4067
42.8378
44.2709
43.6088
41.3568
38.497
36.1102
34.9827
35.2873
36.6522
38.3769
39.737
40.2334
39.7146
38.4211
36.8539
35.5791
34.9659
34.9936
35.2889
35.3295
34.6801
33.1807
30.986
28.5893
26.737
26.1946
27.4425
30.4649
34.7445
39.4359
43.658
46.6948
48.2218
48.3062
47.4123
46.1843
45.1537
44.5499
44.2791
44.0625
43.6396
42.9049
41.9062
40.8648
40.0724
39.7443
39.8961
40.282
40.5504
40.4024
39.789
38.8913
38.0528
37.636
37.9056
38.9323
40.5279
42.2561
43.608
44.2071
43.962
43.0224
41.6793
40.2476
38.9633
37.956
37.1906
36.4949
35.6753
34.6863
33.6987
33.0082
32.8836
33.4485
34.6307
36.1679
37.6261
38.5103
38.4572
37.3837
35.5494
33.4297
31.5323
30.1909
29.5189
29.4253
29.6576
29.9284
30.0503
30.0624
30.2081
30.7298
31.6727
32.7914
33.6603
33.8755
33.2654
32.0723
31.0238
31.1821
33.6286
38.9485
46.7778
55.6872
63.3486
67.0944
64.5784
54.3778
36.5204
12.6812
-14.0606
-39.849
-60.891
-74.2423
-78.3048
-73.0301
-59.8777
-41.4036
-20.6849
-0.642146
16.5164
29.4859
37.9191
42.2553
43.4651
42.7924
41.3975
40.1119
39.4054
39.3823
39.9569
40.887
41.8698
42.6536
43.0987
43.2915
43.4454
43.8039
44.51
45.5664
46.8784
48.2015
49.2107
49.5886
49.2044
48.206
46.9323
45.7569
44.9529
44.5762
44.5082
44.5187
44.3369
43.7944
42.9687
42.1841
41.9028
42.4186
43.7104
45.4639
47.1582
48.2361
48.3007
47.226
45.2787
43.0635
41.2493
40.3171
40.3751
41.1622
42.203
42.914
42.8135
41.6435
39.4819
36.7802
34.1619
32.2168
31.3783
31.7925
33.39
35.846
38.6411
41.2066
43.0309
43.8509
43.673
42.7097
41.3017
39.8239
38.6389
37.9838
37.9193
38.2781
38.8305
39.3852
39.8297
40.0811
40.0939
39.8173
39.258
38.4722
37.5434
36.5464
35.645
35.0553
34.9888
35.4818
36.374
37.378
38.2165
38.6949
38.8046
38.6987
38.6715
39.0696
40.082
41.5952
43.1153
43.9642
43.5367
41.517
38.0248
33.5968
29.0665
25.3633
23.1927
22.7922
23.8472
25.6626
27.4856
28.6938
28.9795
28.3736
27.1723
25.8268
24.7658
24.2368
24.2369
24.6056
25.1583
25.7637
26.3341
26.7677
26.9692
26.9061
26.618
26.1644
25.6677
25.2921
25.2411
25.7063
26.6714
27.9087
29.0492
29.7771
29.9409
29.5858
28.9634
28.4325
28.4028
29.1567
30.7463
32.9741
35.5262
38.1532
40.7245
43.2412
45.6775
47.9596
49.9228
51.3108
51.8278
51.2795
49.6923
47.4275
45.1279
43.5174
43.0981
44.0191
46.1202
48.8995
51.7076
53.895
54.9977
54.926
53.8508
52.0935
49.9149
47.5063
45.0469
42.8137
41.2736
41.0938
43.0215
47.7106
55.3776
65.3769
76.0555
84.9514
89.2423
86.5551
75.5337
56.428
31.2112
3.32376
-23.0281
-43.8553
-56.2943
-59.1411
-52.9521
-39.7174
-22.2865
-3.69912
13.4862
27.5908
37.8794
44.3954
47.5913
48.1405
46.746
44.0958
40.7847
37.3347
34.1702
31.6643
30.0612
29.431
29.602
30.2542
31.0817
31.8433
32.4202
32.7896
32.9508
32.995
32.999
32.9928
32.8951
32.6094
32.092
31.3886
30.6257
29.9331
29.4226
29.1741
29.2215
29.4807
29.7291
29.7336
29.3202
28.5008
27.4527
26.485
25.9693
26.2482
27.5735
29.9287
32.9718
36.147
38.8214
40.5133
40.9754
40.2225
38.5488
36.4545
34.4974
33.1088
32.4475
32.4108
32.741
33.1713
33.496
33.6245
33.5621
33.4539
33.4836
33.7725
34.2779
34.8366
35.2533
35.3762
35.1525
34.6163
33.8525
33.009
32.2582
31.7208
31.4165
31.2899
-2e-006
-2.6e-005
-0.000103
-0.000269
-0.000554
-0.000969
-0.001498
-0.00209
-0.002642
-0.003025
0.00084
0.039312
0.120578
0.219658
0.285771
0.247025
0.073747
-0.198272
-0.499417
-0.691666
-0.617659
-0.152661
0.652064
1.53535
2.07296
1.84019
0.611395
-1.45824
-3.78303
-5.40152
-5.20648
-2.27585
3.78825
12.6224
23.0959
33.5972
42.462
48.4267
50.949
50.3374
47.6171
44.2448
41.5969
40.5989
41.5019
43.9263
47.0659
50.0082
51.9946
52.6496
52.0471
50.6404
49.0133
47.6842
46.9317
46.7464
46.8922
47.0172
46.7734
45.973
44.668
43.1903
42.0355
41.6816
42.4219
44.2895
47.056
50.264
53.2856
55.5138
56.551
56.3854
55.3069
53.8213
52.4607
51.6751
51.7407
52.6925
54.29
56.1402
57.8146
59.0137
59.6115
59.6678
59.3307
58.8411
58.4917
58.5091
58.9691
59.7465
60.5883
61.2534
61.5489
61.3837
60.7864
59.9398
59.0862
58.4323
57.9664
57.4829
56.718
55.6275
54.4681
53.9065
54.9204
58.4995
65.2684
75.0323
86.4289
97.0015
103.669
103.448
94.3037
75.7853
49.3368
18.2187
-13.0851
-39.8347
-58.0644
-65.4357
-61.6775
-48.4585
-28.9614
-7.13502
13.1377
28.8461
38.3868
41.6787
39.8572
34.818
28.6758
23.2693
19.7794
18.5914
19.3561
21.3219
23.7344
26.0559
28.037
29.6791
31.1154
32.5013
33.9063
35.2163
36.2232
36.7917
36.9734
37.0401
37.3152
38.033
39.2356
40.8259
42.5512
44.0715
45.1301
45.6267
45.7233
45.7239
45.8811
46.2493
46.6998
46.986
46.8601
46.159
44.876
43.2518
41.6857
40.5774
40.1436
40.3245
40.8253
41.2984
41.4724
41.2145
40.5525
39.6763
38.8771
38.3987
38.3222
38.5045
38.7204
38.7836
38.6384
38.3229
37.9029
37.4508
37.0466
36.7209
36.3938
35.946
35.2933
34.4973
33.7562
33.2671
33.1426
33.3354
33.689
33.9914
34.0288
33.6273
32.7919
31.7529
30.8763
30.4555
30.5544
31.0073
31.5327
31.8169
31.6623
31.049
30.2265
29.6469
29.7666
30.8296
32.6642
34.7734
36.5082
37.3085
36.8952
35.389
33.3194
31.4817
30.6275
31.1531
32.844
34.9744
36.5947
36.8393
35.2663
32.0155
27.8462
23.9543
21.5899
21.6092
24.1103
28.4239
33.3603
37.5635
39.8783
39.6572
36.9876
32.662
27.9214
24.0377
21.9287
21.9463
23.8771
27.0692
30.6473
33.687
35.5355
35.979
35.2294
33.7598
32.0828
30.6745
29.9179
30.027
31.0485
32.8258
35.107
37.6036
40.002
41.9749
43.1649
43.3303
42.4452
40.7624
38.7183
36.8355
35.5834
35.2806
35.9766
37.4314
39.0877
40.3234
40.6647
39.979
38.4802
36.6376
35.0192
34.167
34.413
35.7472
37.7194
39.6198
40.7273
40.5144
38.7692
35.6063
31.4935
27.1517
23.4043
20.9191
20.0064
20.5988
22.2567
24.301
25.972
26.5559
25.6593
23.4183
20.5642
18.3039
17.983
20.7885
27.343
37.3436
49.3558
60.8454
68.6319
69.6507
61.722
44.2051
18.2852
-13.0382
-45.4502
-74.1555
-94.955
-105.126
-103.901
-92.4668
-73.538
-50.6645
-27.5332
-7.23465
8.23635
18.1628
22.9403
23.729
22.0604
19.5225
17.4724
16.7934
17.727
19.9819
22.9439
25.8841
28.1811
29.4363
29.6075
29.0232
28.2531
27.8781
28.2262
29.2897
30.791
32.2474
33.2036
33.3473
32.6754
31.5471
30.5833
30.495
31.6885
34.2006
37.6765
41.4695
44.813
46.9613
47.4534
46.2824
43.9083
41.1335
38.7823
37.5285
37.7389
39.4272
42.255
45.575
48.6653
50.9073
51.9771
51.8636
50.7713
48.9979
46.8935
44.8205
43.0329
41.6303
40.6078
39.9293
39.6137
39.6916
40.1238
40.8007
41.5712
42.3044
42.8817
43.1609
43.0299
42.5124
41.7561
41.0213
40.5219
40.4115
40.8162
41.7682
43.2141
44.9524
46.71
48.2123
49.2864
49.8825
49.9619
49.4988
48.527
47.1306
45.3996
43.3582
41.055
38.6177
36.2826
34.3762
33.1322
32.6654
32.9389
33.7944
35.0032
36.2692
37.3434
38.1353
38.7572
39.4289
40.3025
41.3819
42.5033
43.459
44.0404
44.091
43.584
42.6513
41.6047
40.7754
40.384
40.4938
41.0043
41.8197
42.8377
43.9182
44.8993
45.6432
46.0297
45.972
45.3519
44.0802
42.2169
39.9893
37.7797
35.9479
34.7561
34.334
34.6794
35.6409
36.9198
38.1672
39.1506
39.8595
40.4442
41.1161
42.0348
43.2707
44.7749
46.3744
47.7858
48.7269
49.1101
49.1387
49.253
49.9572
51.5654
54.1244
57.3229
60.5267
62.8738
63.5519
62.1007
58.649
53.9097
48.957
44.956
42.8738
43.2878
46.221
51.162
57.2173
63.3401
68.6371
72.4725
74.524
74.7865
73.6448
71.8617
70.521
70.8115
73.7022
79.7336
88.682
99.4059
109.845
117.303
119.147
113.492
99.7767
78.973
53.501
26.755
2.45708
-16.212
-27.2586
-30.2289
-26.0897
-16.7975
-4.75804
7.68703
18.6574
27.0515
32.5747
35.5879
36.8124
37.0564
37.0615
37.4071
38.419
40.1254
42.2511
44.3746
46.0582
46.9436
46.771
45.4161
42.9515
39.654
35.9471
32.296
29.101
26.6657
25.1879
24.7116
25.0681
25.9087
26.8244
27.4959
27.7782
27.7465
27.6004
27.6579
28.2616
29.6237
31.7555
34.397
37.1769
39.7551
41.9349
43.6903
45.092
46.232
47.2261
48.1044
48.753
48.9549
48.5455
47.5824
46.3716
45.3814
45.0421
45.6398
47.2101
49.4707
51.8403
53.5631
53.9945
52.8538
50.3213
46.9755
43.5776
40.8957
39.5082
39.5803
40.8537
42.6688
44.2218
44.838
44.161
42.1769
39.1285
35.4609
31.7121
28.3974
25.8506
24.1963
23.4042
23.419
24.1444
25.4791
27.2254
29.1534
31.0753
32.8378
34.3428
35.5358
36.4064
37.0281
37.5199
37.9779
38.3846
38.6443
38.7185
38.6703
38.6161
38.6523
38.8477
39.2152
39.6312
39.8364
39.4759
38.2635
36.1984
33.6069
31.1015
29.326
28.8299
29.9201
32.4657
35.9311
39.4561
42.1353
43.3593
42.8922
40.9393
37.9819
34.6276
31.4376
28.8162
26.9343
25.6989
24.9628
24.6661
24.9061
25.8856
27.7297
30.4079
33.7206
37.3131
40.6899
43.2854
44.6652
44.6878
43.5438
41.6537
39.534
37.6762
36.4351
36.0114
36.3399
37.1166
37.8917
38.2989
38.2064
37.7278
37.1519
36.8549
37.2062
38.3893
40.2424
42.2422
43.6491
43.8225
42.441
39.6232
35.8998
32.0779
29.0468
27.4355
27.4145
28.5727
30.0802
31.0526
30.8654
29.3374
26.7441
23.7174
20.9766
19.0866
18.2248
18.1054
18.2239
18.188
18.0106
18.2472
19.815
23.6938
30.5079
40.1329
51.3418
61.8355
68.6415
68.8886
60.6074
43.352
18.4672
-10.9689
-40.7493
-66.3675
-84.0549
-91.6297
-88.8863
-77.4536
-60.2501
-40.7458
-22.1514
-6.80945
4.18545
11.0339
14.7531
16.7195
18.2139
20.13
22.8737
26.3413
30.0786
33.5076
36.1329
37.7144
38.2766
38.0496
37.388
36.7438
36.6009
37.3245
39.0273
41.5578
44.5501
47.5094
49.845
50.9739
50.4471
48.1036
44.1159
38.984
33.3904
28.1151
23.9127
21.4117
20.9083
22.3255
25.2127
28.9205
32.7762
36.2401
38.9603
40.843
42.0141
42.7543
43.3214
43.7991
44.1008
44.0674
43.5883
42.6404
41.2941
39.6966
38.0198
36.4732
35.1476
34.0338
33.0777
32.259
31.6792
31.5221
31.9314
32.9889
34.6214
36.6625
38.8212
40.7139
41.9274
42.1689
41.3524
39.5985
37.1621
34.3879
31.6935
29.5385
28.2362
27.8841
28.3322
29.2708
30.3742
31.3828
32.1616
32.767
33.43
34.522
36.2774
38.688
41.4509
44.0801
46.0959
47.1681
47.2172
46.4635
45.3484
44.4081
44.0316
44.2846
44.8932
45.3839
45.3438
44.5941
43.2392
41.6728
40.4463
40.1636
41.1956
43.5508
46.8533
50.4882
53.8186
56.3325
57.713
57.9207
57.154
55.8678
54.5517
53.5852
53.1134
53.0721
53.2295
53.2602
52.8311
51.7208
49.9172
47.7264
45.6502
44.2133
43.788
44.4927
46.1415
48.263
50.2086
51.3002
51.0943
49.5694
47.0763
44.1935
41.5175
39.5054
38.3985
38.1448
38.4274
38.8045
38.8927
38.5015
37.6401
36.4806
35.2381
34.152
33.4813
33.4442
34.1454
35.5383
37.4254
39.5564
41.5919
43.1322
43.7931
43.3111
41.6573
39.0425
35.8314
32.4092
29.1729
26.5081
24.6803
23.7951
23.791
24.4941
25.7137
27.2038
28.6423
29.6488
29.8613
29.0771
27.3382
24.9692
22.5909
21.1292
21.6305
25.0038
31.6373
41.0598
51.857
61.7784
68.1242
68.2389
60.2047
43.4518
19.1557
-9.82932
-39.4841
-65.4606
-83.9472
-92.4448
-90.3087
-78.8046
-60.7268
-39.6455
-18.9829
-1.31948
11.9885
20.8324
26.0895
29.1306
31.2737
33.3339
35.4553
37.2554
38.1423
37.6982
35.9041
33.1515
30.2231
28.0359
27.3438
28.4105
30.92
34.0842
37.0179
38.9804
39.6242
39.0693
37.8759
36.8593
36.7922
38.0524
40.4637
43.3865
45.9596
47.4219
47.3306
45.682
42.9362
39.8812
37.3857
36.0608
36.1004
37.3076
39.2586
41.4679
43.5395
45.1915
46.3271
46.9815
47.2397
47.1219
46.5773
45.5425
44.0416
42.2348
40.3145
38.4295
36.6701
35.0618
33.5974
32.2285
30.9156
29.704
28.7267
28.1671
28.1309
28.5461
29.2456
29.9955
30.6293
31.0503
31.1956
31.0487
30.6769
30.1366
29.457
28.622
27.6136
26.495
25.4645
24.7175
24.3668
24.433
24.868
25.6271
26.6582
27.8831
29.2503
30.7442
32.3332
33.8986
35.1998
35.9605
36.0127
35.4039
-2e-006
-2.5e-005
-8.8e-005
-0.000209
-0.000413
-0.00072
-0.001131
-0.001604
-0.002068
-0.002442
0.001387
0.037621
0.09465
0.150297
0.181991
0.174855
0.100125
-0.06502
-0.282996
-0.440876
-0.410577
-0.132841
0.359789
0.920839
1.30632
1.24433
0.549142
-0.740434
-2.28214
-3.43688
-3.43231
-1.61738
2.33783
8.30959
15.743
23.7547
31.3538
37.6907
42.2905
45.1008
46.3895
46.6033
46.1855
45.543
44.9574
44.6225
44.6394
45.0587
45.8823
47.0193
48.2601
49.306
49.8309
49.6571
48.8256
47.5914
46.3114
45.3023
44.6834
44.3542
44.0028
43.284
41.9911
40.2571
38.6093
37.7977
38.474
40.9283
44.9286
49.755
54.3472
57.5701
58.5855
57.1371
53.6367
48.981
44.2352
40.3174
37.8207
36.8816
37.2197
38.2435
39.2576
39.6841
39.1766
37.6204
35.0583
31.6789
27.8859
24.3484
21.9338
21.625
24.3044
30.5431
40.2223
52.3196
64.7558
74.681
79.0508
75.3498
62.2621
40.1952
11.3809
-20.3625
-50.3547
-74.0551
-88.0419
-90.7118
-82.5371
-65.8095
-44.0391
-21.17
-0.684853
15.0659
25.1882
30.109
31.1456
30.0135
28.3232
27.2504
27.3652
28.6467
30.6926
32.9851
35.1473
36.9887
38.4318
39.4253
39.9728
40.0543
39.6203
38.5985
36.9938
34.985
32.903
31.1497
30.0566
29.7983
30.3663
31.6344
33.3703
35.2832
37.1025
38.6655
39.9356
40.979
41.8013
42.3643
42.6032
42.4777
41.971
41.1152
40.0143
38.8892
38.0671
37.8411
38.3539
39.4833
40.9314
42.2368
42.932
42.6414
41.2
38.7774
35.8592
33.0813
30.9749
29.7961
29.44
29.5269
29.5233
28.8933
27.3447
24.9465
22.144
19.6025
17.8893
17.2813
17.7304
18.9334
20.4227
21.7179
22.5026
22.7428
22.6515
22.5451
22.6971
23.2343
24.1258
25.2845
26.5865
27.8921
29.0787
30.0847
30.9434
31.7297
32.5013
33.3303
34.3143
35.623
37.4381
39.8534
42.8021
46.1018
49.5142
52.7574
55.542
57.5755
58.6982
58.8939
58.2666
57.0138
55.3368
53.491
51.8348
50.7117
50.3565
50.8238
51.9621
53.5013
55.0751
56.2797
56.7909
56.487
55.5049
54.1794
52.8812
51.8897
51.3458
51.2773
51.5708
52.053
52.5194
52.8445
53.0185
53.0793
53.0445
52.8512
52.3762
51.5604
50.4158
49.0341
47.5708
46.2768
45.4372
45.2412
45.6842
46.5415
47.4255
47.9826
47.9363
47.2058
45.8485
44.1138
42.3906
41.0588
40.3572
40.2902
40.7149
41.4437
42.34
43.3526
44.4917
45.8299
47.4775
49.4034
51.3808
52.9429
53.5075
52.6619
50.2631
46.541
42.0705
37.6709
34.2361
32.4365
32.4836
34.0121
36.1796
37.932
38.2832
36.6422
32.9677
27.8817
22.6354
18.7903
17.7996
20.5382
27.0038
36.1784
46.0832
54.0548
57.2218
53.186
40.6947
20.0546
-6.79181
-36.5368
-65.1094
-88.3934
-103.151
-107.659
-102.093
-88.3364
-69.4211
-48.7642
-29.4479
-13.6995
-2.53472
4.17857
7.39294
8.38042
8.28631
7.88871
7.58886
7.49113
7.60816
7.92009
8.48376
9.51045
11.2345
13.761
16.9816
20.6134
24.32
27.8098
30.8852
33.4418
35.5097
37.2237
38.76
40.2844
41.8506
43.4356
45.0128
46.5466
47.9675
49.1349
49.9437
50.3394
50.3601
50.1025
49.7207
49.2972
48.9194
48.6348
48.4036
48.0997
47.5827
46.8207
45.9081
45.0064
44.221
43.5996
43.1174
42.6851
42.171
41.4144
40.342
39.03
37.6695
36.4663
35.539
34.8478
34.2712
33.6772
33.0166
32.2794
31.5711
31.1139
31.1708
31.8622
33.0763
34.5231
35.8676
36.8682
37.424
37.5359
37.3352
37.0074
36.7164
36.5247
36.383
36.2131
36.06
36.1161
36.6283
37.7473
39.4701
41.5655
43.6405
45.1911
45.8217
45.3509
43.9456
42.1011
40.405
39.2833
38.8659
38.9977
39.3569
39.616
39.5369
39.1403
38.707
38.6147
39.1156
40.1429
41.3301
42.1363
42.098
41.0038
38.9667
36.4301
34.0329
32.4157
31.9812
32.6818
34.0695
35.5068
36.452
36.5722
35.8419
34.5527
33.2023
32.3405
32.315
33.1217
34.4508
35.8854
37.0553
37.7487
37.9681
37.8717
37.7162
37.738
38.0136
38.3556
38.4451
37.9633
36.7635
34.8878
32.5548
30.0956
27.8414
26.0793
24.9139
24.2443
23.8348
23.4939
23.1511
22.8825
22.7961
23.0316
23.7053
24.9059
26.654
28.8819
31.4878
34.364
37.4255
40.553
43.5159
45.9859
47.6207
48.1933
47.639
46.0652
43.758
41.1812
38.9471
37.6283
37.5959
38.9413
41.4901
44.8287
48.2952
51.0826
52.4363
51.9097
49.5823
46.0837
42.5478
40.4038
41.0405
45.4052
53.5752
64.4162
75.647
84.2611
87.1175
81.6816
66.6998
42.6525
11.8861
-21.6734
-53.3276
-78.5423
-93.893
-97.6674
-90.1575
-73.4888
-51.1722
-27.2435
-5.37518
11.8379
23.2367
29.0556
30.613
29.8066
28.5464
28.2436
29.5189
32.1608
35.3999
38.3093
40.1171
40.4161
39.2655
37.159
34.8766
33.1877
32.617
33.276
34.9896
37.3848
40.0021
42.4146
44.2818
45.4799
46.0844
46.2579
46.1586
45.9053
45.5887
45.3495
45.3416
45.6746
46.3767
47.421
48.7154
50.0954
51.3048
52.0726
52.2255
51.7937
50.9551
49.958
48.9965
48.1911
47.567
47.0615
46.4943
45.6592
44.457
42.9917
41.485
40.1782
39.277
38.8919
39.0538
39.6864
40.5957
41.5113
42.1626
42.3671
42.0263
41.0815
39.5113
37.4181
35.0577
32.7843
30.9776
29.9164
29.7475
30.432
31.7327
33.2535
34.4331
34.8755
34.4147
33.176
31.5059
29.8495
28.5863
27.9997
28.1795
28.968
30.0706
31.1724
32.1054
32.8646
33.5188
34.1017
34.5682
34.7995
34.6144
33.7998
32.1727
29.754
26.8542
23.9607
21.5875
20.1025
19.641
20.1424
21.3164
22.703
23.8159
24.3135
24.1297
23.458
22.6169
21.937
21.6877
22.0041
22.868
24.1267
25.4698
26.6275
27.4644
27.9993
28.3586
28.7287
29.3235
30.361
31.9976
34.2385
36.8529
39.479
41.717
43.1849
43.6068
42.8812
41.1284
38.7366
36.2601
34.2244
32.9944
32.694
33.2414
34.3918
35.8046
37.102
38.0075
38.4597
38.5724
38.5251
38.4308
38.3355
38.2969
38.3486
38.4867
38.6941
38.9691
39.3968
40.0726
41.0214
42.1359
43.2754
44.3056
45.158
45.8081
46.2194
46.4325
46.5191
46.5736
46.675
46.7773
46.8107
46.7591
46.6375
46.4489
46.0852
45.3878
44.1874
42.3746
39.9895
37.3153
35.0124
34.1675
36.0375
41.6461
51.2405
63.9026
77.472
88.7121
93.8975
89.6944
74.1482
47.4445
12.1782
-27.0696
-64.6903
-95.227
-114.476
-120.356
-113.201
-95.5071
-71.1659
-44.4488
-19.1148
2.12602
17.8287
27.7435
32.5742
33.5794
32.1736
29.6004
26.8641
24.6474
23.3592
23.133
23.8025
25.0712
26.6568
28.4083
30.3042
32.3504
34.589
37.0672
39.7567
42.5615
45.2855
47.777
50.0518
52.309
54.8435
57.8099
61.1722
64.6764
67.8865
70.3177
71.5725
71.5161
70.4564
69.0586
68.1049
68.1894
69.5269
71.8593
74.5253
76.6357
77.3345
76.1031
72.9872
68.5499
63.6596
59.193
55.7197
53.4063
52.0169
50.9961
49.6475
47.4323
44.1399
39.9507
35.3137
30.7352
26.6413
23.3324
20.9317
19.3933
18.5232
18.1025
17.9529
18.0403
18.4062
19.089
20.1444
21.6671
23.753
26.4318
29.595
32.9741
36.2279
39.0224
41.1069
42.2999
42.6105
42.2297
41.5076
40.7868
40.247
39.8824
39.5799
39.2085
38.6959
38.0185
37.2981
36.7693
36.7001
37.2317
38.307
39.6951
41.099
42.2806
43.0967
43.5247
43.6101
43.4837
43.2924
43.0533
42.6493
41.8933
40.6744
39.062
37.2978
35.7466
34.7283
34.5388
35.2825
36.7998
38.6729
40.3579
41.3305
41.3245
40.3459
38.6559
36.6939
35.0125
34.1605
34.4886
36.0276
38.4963
41.402
44.1883
46.3405
47.4462
47.3091
45.9994
43.8599
41.3835
39.0338
37.1497
35.9602
35.5397
35.8556
36.7397
37.9949
39.436
40.9139
42.2338
43.0802
43.0643
41.846
39.2971
35.5679
31.0657
26.3658
22.1487
19.0358
17.382
17.2211
18.2953
20.1804
22.4562
24.738
26.6166
27.6496
27.4679
25.9213
23.1847
19.8843
17.0909
16.1782
18.5046
24.8517
34.961
47.3094
59.3275
67.9891
70.5524
65.2932
52.0713
32.5749
10.0311
-11.4984
-28.0461
-36.5682
-35.4725
-24.8113
-6.1066
18.0344
44.4554
70.1543
92.7282
110.63
123.228
130.716
133.952
134.229
132.972
131.391
130.284
129.985
130.412
131.147
131.586
131.116
129.359
126.324
122.374
118.059
113.942
110.418
107.605
105.299
102.958
99.9412
95.7825
90.4512
84.3926
78.3859
73.3187
69.9247
68.5328
68.8816
70.1165
70.9876
70.2466
67.0811
61.3705
53.7306
45.3316
37.6461
32.0613
29.4602
29.9471
32.8316
36.878
40.7331
43.3347
44.1489
43.2183
41.118
38.7353
36.8782
35.9744
35.9445
36.3413
36.6076
36.3471
35.4861
34.3045
33.4171
33.5472
35.2645
38.7088
43.5227
48.9519
54.0731
58.0313
60.1801
60.1611
58.0086
54.1041
49.0415
43.4421
37.8417
32.6864
28.3363
25.0297
22.8061
21.4853
20.7698
20.3432
19.9053
19.2558
18.3009
17.1256
15.9645
15.0875
14.6479
14.5278
14.3701
13.7107
12.0412
8.90057
3.97377
-2.82258
-11.3005
-21.0705
-31.6495
-42.5836
-53.4536
-63.817
-73.2587
-81.4435
-88.1863
-93.4424
-97.2723
-99.8625
-101.513
-102.61
-103.435
-104.115
-104.541
-104.506
-103.792
-3e-006
-3.8e-005
-0.000154
-0.000422
-0.000912
-0.001677
-0.002721
-0.003973
-0.005286
-0.006442
-0.001463
0.054029
0.177901
0.362903
0.527539
0.562673
0.369776
-0.074017
-0.650823
-1.12601
-1.19453
-0.583954
0.741106
2.42872
3.74637
3.83058
2.04964
-1.57544
-6.17708
-10.0247
-10.9137
-6.82313
3.35988
19.3434
39.3351
60.4966
79.8376
95.2041
105.964
113.197
119.216
126.616
137.159
150.832
165.58
177.804
183.437
179.248
163.903
138.496
106.35
72.1942
40.933
16.5066
1.04296
-5.33524
-4.15509
2.09324
10.7451
19.604
27.3363
33.5417
38.4915
42.7587
46.8063
50.8542
54.8649
58.612
61.8352
64.316
65.9964
67.0436
67.7706
68.4902
69.4059
70.6181
72.1135
73.8229
75.5766
77.1633
78.3737
79.0848
79.2611
78.9486
78.2397
77.2384
76.0778
74.8594
73.6294
72.3144
70.7738
68.9008
66.7289
64.3613
61.9172
59.5397
57.3856
55.5622
54.0437
52.7121
51.3629
49.8191
47.9577
45.7226
43.0484
39.8896
36.3197
32.5383
28.838
25.5298
22.9373
21.3109
20.8065
21.372
22.7203
24.4948
26.4205
28.4285
30.6434
33.2903
36.5835
40.6295
45.3497
50.4012
55.2612
59.4342
62.64
64.9284
66.6183
68.1118
69.7253
71.6228
73.7264
75.7442
77.2661
77.9562
77.726
76.7799
75.5534
74.4994
73.9883
74.2038
75.1846
76.8006
78.7778
80.8034
82.6644
84.2344
85.3888
85.9755
85.761
84.5226
82.1389
78.5937
73.9806
68.519
62.5726
56.5473
50.8223
45.5953
40.8979
36.6334
32.6794
28.8638
24.9843
20.8992
16.5675
12.1189
7.77962
3.81706
0.473609
-2.04592
-3.58274
-4.13416
-3.9178
-3.28331
-2.60259
-2.13323
-1.92319
-1.83693
-1.51604
-0.410076
2.06374
6.31977
12.3863
19.8209
27.8208
35.4461
41.8406
46.4396
49.1766
50.5371
51.4641
53.0245
56.0574
60.9203
67.483
75.2154
83.3905
91.3048
98.4628
104.68
110.007
114.547
118.299
121.171
123.153
124.553
126.128
128.98
134.25
142.675
154.153
167.334
179.644
187.767
188.487
179.662
160.886
133.751
101.563
68.6765
39.5216
17.5914
4.67478
0.674206
3.90888
11.7965
21.5926
31.0016
38.6058
43.981
47.5219
50.0091
52.1423
54.2306
56.165
57.5579
57.9131
56.8545
54.3014
50.5931
46.439
42.6897
40.0586
38.8828
39.114
40.3853
42.1262
43.7538
44.8483
45.3104
45.3514
45.4029
45.8547
46.9115
48.4964
50.3971
52.2849
53.8591
54.9526
55.6259
56.2113
57.1057
58.5619
60.5332
62.7134
64.668
65.9539
66.2864
65.6048
64.2096
62.6497
61.498
61.1122
61.4757
62.2479
62.9765
63.1895
62.5754
61.0469
58.7678
56.0923
53.3945
50.8687
48.4912
46.0922
43.5605
40.8928
38.2205
35.7525
33.724
32.2983
31.4841
31.0918
30.743
30.085
28.9791
27.5417
26.0729
24.9613
24.5963
25.2579
27.0132
29.671
32.7868
35.8021
38.2546
39.817
40.3547
39.9118
38.7378
37.2998
36.1591
35.8201
36.5401
38.3496
41.0745
44.3177
47.5426
50.1711
51.8148
52.3907
52.0984
51.3058
50.4013
49.6531
49.205
48.9934
48.7987
48.3242
47.3659
45.934
44.2716
42.7118
41.5317
40.8657
40.6737
40.7589
40.7643
40.2634
38.9631
36.8263
34.1217
31.3437
29.0549
27.8016
28.0233
29.9236
33.4019
37.9706
42.9619
47.6959
51.6049
54.398
56.0443
56.8329
57.3587
58.311
60.2843
63.5528
68.0699
73.5253
79.4455
85.3185
90.6675
95.1962
98.8762
101.788
104.018
105.567
106.367
106.436
106.023
105.694
106.361
109.163
115.226
125.226
138.936
154.92
170.615
182.734
187.989
183.872
169.312
145.129
114.062
80.2471
48.2652
22.1052
4.36679
-4.17219
-4.4968
1.03948
9.40597
17.7531
24.0988
27.6144
28.5847
27.9589
26.9464
26.567
27.3377
29.1729
31.4333
33.2747
34.0294
33.4446
31.7149
29.3264
26.9498
25.2241
24.5737
25.0799
26.4982
28.4099
30.4595
32.4052
34.1531
35.6757
36.9498
37.946
38.6307
39.0158
39.1334
39.153
39.4104
40.3203
42.217
45.1299
48.7947
52.7358
56.4536
59.5614
61.8718
63.4259
64.4735
65.3139
66.0594
66.5373
66.3643
65.1744
62.8502
59.6373
56.0743
52.9084
50.9048
50.5528
51.826
54.1382
56.5588
58.1402
58.237
56.7026
53.8529
50.38
47.123
44.8026
43.7418
43.72
44.1692
44.4029
43.9488
42.6396
40.658
38.4454
36.5698
35.4979
35.4408
36.2206
37.4027
38.5155
39.2178
39.3969
39.0908
38.4796
37.8137
37.3006
37.0961
37.1998
37.5155
37.9499
38.4719
38.9944
39.3383
39.2533
38.5104
37.0517
35.0125
32.7348
30.7351
29.5967
29.7515
31.29
33.8306
36.6115
38.8053
39.7728
39.2919
37.5593
35.1648
32.8825
31.4187
31.1429
31.9359
33.2949
34.5872
35.3273
35.2993
34.5663
33.4439
32.3112
31.5463
31.2844
31.3884
31.5741
31.5959
31.3701
31.046
30.8504
31.0312
31.7616
33.0832
34.8543
36.7708
38.5091
39.8963
40.9186
41.7411
42.572
43.4877
44.4327
45.2518
45.6501
45.3079
43.9993
41.7599
38.8969
35.9234
33.3076
31.341
30.069
29.3017
28.688
27.8968
26.8335
25.8283
25.6806
27.4024
31.8546
39.3671
49.4773
60.8378
71.3293
78.3989
79.6451
73.4743
59.6267
39.3073
15.0359
-9.80482
-31.6148
-47.2291
-54.6238
-53.2659
-44.1088
-29.2529
-11.4083
6.7224
22.8428
35.4344
43.919
48.6222
50.4427
50.5231
49.929
49.4907
49.6643
50.4794
51.6479
52.6575
53.0397
52.5861
51.3689
49.7206
48.1214
47.0673
46.9435
47.8613
49.5613
51.5039
53.0879
53.909
53.8429
53.0708
52.0169
51.1795
51.0484
51.8456
53.461
55.502
57.5255
59.17
60.2579
60.7474
60.709
60.2849
59.6462
58.9568
58.3401
57.8843
57.7058
57.9369
58.6204
59.6107
60.5547
60.9875
60.4694
58.7454
55.758
51.6989
46.9609
42.116
37.671
33.9447
31.009
28.7743
27.1029
25.8556
24.8932
24.0896
23.3325
22.5659
21.7352
20.7917
19.7439
18.6937
17.9414
17.8646
18.7421
20.6348
23.3611
26.5426
29.6513
32.1214
33.5068
33.6364
32.7319
31.3057
29.9581
29.205
29.4071
30.6586
32.7682
35.2545
37.4893
38.8719
39.0184
37.8548
35.5958
32.677
29.7124
27.363
26.1809
26.4289
27.9789
30.3826
33.0096
35.1848
36.3199
36.0698
34.431
31.8
28.8726
26.3848
24.9132
24.7736
25.9263
28.029
30.475
32.5643
33.7435
33.811
32.9327
31.5568
30.2321
29.4368
29.4492
30.2924
31.6543
32.9956
33.809
33.847
33.1688
32.1175
31.1558
30.7866
31.4321
33.2863
36.2387
39.9044
43.7794
47.405
50.4508
52.6883
54.0025
54.3714
53.9053
52.8151
51.3128
49.5652
47.7506
46.0274
44.5163
43.2487
42.124
41.0307
39.9505
38.9841
38.3058
38.0254
38.1327
38.4585
38.7229
38.5286
37.5851
36.027
34.5523
34.4051
37.0478
43.653
54.562
68.9169
84.4738
97.8676
105.238
103.212
89.9471
65.8256
33.6085
-2.05638
-35.5498
-61.4846
-75.9765
-77.5128
-67.2545
-48.5359
-25.8756
-3.8464
13.9895
25.6772
31.08
31.5758
29.3653
26.6498
24.9917
25.0226
26.5121
28.6898
30.5909
31.4044
30.8146
29.0583
26.8245
24.9573
24.1201
24.6772
26.5717
29.3838
32.4462
34.9689
36.3071
36.1804
34.7564
32.5629
30.286
28.6293
28.1285
29.0425
31.2287
34.2344
37.4348
40.2901
42.4973
44.0436
45.1016
45.9717
47.0085
48.466
50.4304
52.7652
55.1918
57.4361
59.3229
60.763
61.7112
62.169
62.201
61.8687
61.2135
60.2037
58.8146
57.1244
55.2942
53.5365
52.0493
50.9926
50.4757
50.5313
51.0625
51.8405
52.5356
52.8237
52.4365
51.2311
49.1098
46.141
42.5073
38.5315
34.5839
30.9499
27.8143
25.2952
23.4229
22.1296
21.2044
20.4
19.4777
18.3389
16.9742
15.4788
14.0803
13.1029
12.9407
13.8884
15.972
18.9621
22.4096
25.7572
28.4491
30.0549
30.3921
29.6571
28.377
27.2054
26.6884
27.1332
28.5578
30.7374
33.234
35.5275
37.1992
38.0785
38.264
38.0199
37.6376
37.3658
37.3681
37.713
38.3228
39.0128
39.5315
39.6626
39.2907
38.4593
37.2914
36.0414
35.0572
34.7532
35.421
37.0985
39.5293
42.216
44.5906
46.1128
46.366
45.2515
43.0241
40.2697
37.682
35.8225
34.9764
35.1598
36.1834
37.7315
39.4574
41.1746
42.9008
44.831
47.1922
50.0409
53.1753
56.243
58.8447
60.6184
61.3074
60.8957
59.5809
57.7623
55.863
54.1833
52.8913
52.0626
51.7938
52.1793
53.2702
55.0377
57.2867
59.6664
61.6287
62.5071
61.7947
59.4146
55.9706
52.7003
51.1599
52.742
58.1449
66.9689
77.4508
86.6508
91.1046
87.7271
74.7801
52.4781
23.0508
-9.53922
-40.4509
-64.9985
-79.7116
-83.0583
-75.6855
-60.0053
-39.4892
-17.8201
1.85529
17.4951
28.3634
34.877
38.1791
39.5948
40.1882
40.6246
41.1403
41.6165
41.7407
41.2958
40.2558
38.9071
37.7272
37.189
37.6094
39.0633
41.433
44.3743
47.3878
49.9648
51.7285
52.55
52.5367
51.9301
51.0611
50.2377
49.7575
49.7911
50.3174
51.1349
51.9333
52.452
52.521
52.06
51.0947
49.8035
48.4833
47.4603
46.9342
46.9861
47.5465
48.4638
49.4874
50.2945
50.5361
49.9387
48.4072
46.0254
43.016
39.6926
36.4552
33.7104
31.7718
30.7336
30.4545
30.6751
31.1304
31.5936
31.9135
32.0175
31.8656
31.5253
-2e-006
-2.6e-005
-9.4e-005
-0.000227
-0.000435
-0.000733
-0.001109
-0.001515
-0.001872
-0.002102
0.001814
0.038958
0.10658
0.166155
0.177165
0.131762
0.018112
-0.165774
-0.361611
-0.453485
-0.325356
0.064376
0.61782
1.11622
1.29948
0.943884
-0.018159
-1.41598
-2.79672
-3.48239
-2.79113
-0.259899
4.15216
10.0441
16.6854
23.1677
28.6676
32.6169
34.8726
35.6891
35.5413
34.959
34.3459
33.9205
33.7698
33.8874
34.234
34.7523
35.3926
36.1318
36.9138
37.6425
38.2017
38.5461
38.7472
38.9434
39.2598
39.7617
40.4073
41.0479
41.5412
41.7933
41.8108
41.7011
41.6811
42.0139
42.843
44.0969
45.5656
47.0266
48.3008
49.2885
49.9529
50.3602
50.6562
50.9461
51.2392
51.372
51.1267
50.3319
48.8774
46.7668
44.0962
41.0829
38.1233
35.6629
34.1173
33.6896
34.3882
36.0346
38.2399
40.4696
42.1
42.594
41.6979
39.4922
36.3962
33.0835
30.4009
29.3249
30.7198
35.0482
42.096
50.914
59.8556
66.7693
69.2888
65.4071
54.0643
35.5762
11.8201
-14.0587
-38.2328
-56.952
-67.2931
-67.8068
-58.8068
-42.311
-21.4362
0.335264
19.9152
35.1349
44.9852
49.6575
50.2909
48.5029
45.9419
43.8465
42.9479
43.465
45.2027
47.7242
50.4499
52.8763
54.6854
55.7583
56.1578
55.9854
55.3918
54.5782
53.7817
53.2107
52.9533
53.0503
53.505
54.2778
55.2553
56.2167
56.8888
57.0757
56.7307
55.8976
54.6768
53.214
51.7087
50.3846
49.3899
48.6942
48.2477
48.016
48.0145
48.2696
48.7391
49.3253
49.9147
50.3676
50.5089
50.0965
48.9685
47.0812
44.5874
41.7378
38.8285
36.2036
34.2123
33.1604
33.221
34.3184
36.1794
38.3663
40.4009
41.8358
42.2928
41.6426
40.0277
37.8912
35.8226
34.3376
33.7857
34.2833
35.7307
37.8095
40.0103
41.8097
42.8089
42.8135
41.8226
39.9747
37.5267
34.8659
32.498
30.8704
30.2799
30.7622
32.1673
34.1395
36.1773
37.6424
38.0385
37.1451
35.1537
32.5644
30.0291
28.2302
27.6947
28.667
30.9498
33.939
36.7789
38.6576
39.0893
37.9777
35.6185
32.6199
29.736
27.6625
26.8118
27.1498
28.3617
29.9211
31.3602
32.3454
32.6969
32.4174
31.6161
30.5372
29.4315
28.4669
27.7595
27.4041
27.4827
27.9733
28.7163
29.407
29.7261
29.4541
28.5322
27.1021
25.4803
24.1231
23.5098
23.9491
25.393
27.4549
29.6146
31.3978
32.4734
32.7332
32.3273
31.6169
31.0825
31.0955
31.7866
33.0636
34.6973
36.4668
38.1603
39.6229
40.743
41.4923
41.9211
42.0904
42.0231
41.7369
41.342
41.0388
41.0393
41.435
42.195
43.1423
44.0461
44.6705
44.8812
44.7431
44.5593
44.8312
46.05
48.4199
51.7094
55.2779
58.2322
59.6521
58.9656
56.2426
52.3667
48.9556
47.9374
50.899
58.474
69.9781
83.3349
95.4447
102.76
102.221
92.1431
72.8041
46.4557
16.8372
-11.6347
-34.7942
-49.5691
-54.5968
-50.3895
-39.0276
-23.4977
-6.92078
8.08796
19.7859
27.4482
31.3196
32.3668
31.858
30.9415
30.4091
30.6349
31.6117
33.052
34.5387
35.6903
36.3408
36.6108
36.7201
36.8997
37.22
37.5969
37.8958
38.0286
38.0368
38.1617
38.8264
40.5124
43.4745
47.5536
52.1011
56.155
58.7742
59.3989
57.9873
55.0868
51.6965
48.9734
47.8215
48.5159
50.6496
53.3538
55.6697
56.899
56.7737
55.5294
53.7814
52.2725
51.5494
51.7075
52.3907
53.0065
53.0004
52.1165
50.4323
48.286
46.1583
44.5205
43.6067
43.3074
43.2461
