-1e-006
-1.4e-005
-4.1e-005
-9.9e-005
-0.00021
-0.000388
-0.000642
-0.000961
-0.001309
-0.001632
0.000476
0.019478
0.038744
0.0715
0.111968
0.135303
0.121365
0.045828
-0.091299
-0.245492
-0.35315
-0.321036
-0.096461
0.30331
0.761354
1.0812
1.02085
0.41538
-0.689185
-1.98089
-2.90011
-2.76144
-0.979987
2.74196
8.22932
14.8134
21.4824
27.124
30.8756
32.3295
31.6767
29.5946
27.0045
24.8211
23.662
23.7157
24.7725
26.3639
27.9833
29.2666
30.0909
30.5536
30.8476
31.1654
31.5953
32.0818
32.4817
32.7243
32.862
33.156
34.028
35.9594
39.2737
44.0485
49.999
56.4266
62.3185
66.5073
67.9601
66.1002
61.0614
53.8172
46.0879
39.8756
36.8628
37.7262
41.6189
46.1502
48.0732
44.415
33.8263
17.6302
-0.019389
-12.917
-14.6529
-0.782321
29.3067
71.5797
118.009
158.561
183.966
188.369
170.975
136.245
92.4429
49.1578
14.6334
-6.2504
-12.822
-8.09893
2.75592
14.3105
22.4685
25.3818
23.4088
18.4346
12.8265
8.56748
6.71533
7.28987
9.54472
12.3943
14.8448
16.2761
16.5615
15.9756
15.052
14.3458
14.2992
15.1326
16.8891
19.4754
22.7876
26.7418
31.3154
36.5023
42.2098
48.2038
54.1433
59.6387
64.3894
68.2856
71.4526
74.2147
76.9243
79.8823
83.2048
86.8478
90.6611
94.5809
98.6423
103.001
107.831
113.232
119.033
124.703
129.382
132.098
131.963
128.423
121.421
111.418
99.3038
86.2253
73.3072
61.4937
51.397
43.2538
37.044
32.5409
29.4214
27.3343
25.9701
25.0597
24.3363
23.5028
22.2916
20.4491
17.8633
14.604
10.962
7.43091
4.5546
2.82135
2.50153
3.52963
5.48257
7.72969
9.61495
10.6468
10.6184
9.64241
8.08892
6.43622
5.10023
4.32295
4.15692
4.48611
5.13291
5.99801
7.03964
8.27595
9.68873
11.2252
12.7112
13.9231
14.6339
14.7398
14.302
13.5695
12.8704
12.4644
12.447
12.7119
12.9651
12.9013
12.3136
11.2556
10.0558
9.25425
9.39004
10.7813
13.3877
16.8096
20.3914
23.4216
25.3884
26.1472
25.9501
25.3649
25.0537
25.5275
26.9675
29.2725
32.1041
35.0071
37.606
39.743
41.4863
43.0686
44.7781
46.835
49.3371
52.2564
55.474
58.7936
62.0071
64.8415
66.9765
68.0344
67.6013
65.4396
61.6499
56.8718
52.1866
48.9115
48.0605
49.7834
52.9853
55.4039
54.1919
47.0275
33.3485
15.2556
-2.54202
-13.6446
-11.9057
6.44846
41.0896
87.0458
135.563
176.27
200.027
201.556
180.897
143.285
97.5176
53.371
18.9315
-1.32378
-7.14501
-1.86661
9.21404
20.7743
28.9304
31.9217
30.0352
24.9224
18.6726
13.0591
9.20298
7.46023
7.66218
9.36546
12.0086
15.0458
18.0337
20.6084
22.6199
24.1303
25.368
26.6718
28.3627
30.6384
33.4692
36.6214
39.766
42.6275
45.122
47.443
49.9377
53.0055
56.9329
61.8545
67.6331
73.9596
80.392
86.4884
91.9282
96.53
100.261
103.211
105.563
107.622
109.716
112.099
114.842
117.699
120.15
121.377
120.51
116.866
110.197
100.832
89.6747
77.9171
66.7469
57.0289
49.094
42.7175
37.2903
32.0657
26.5533
20.6553
14.7483
9.48996
5.5861
3.45877
3.13285
4.1782
5.83763
7.2944
7.95336
7.60938
6.47248
5.05975
3.94731
3.57513
4.09685
5.38057
7.08646
8.80099
10.1961
11.1517
11.7477
12.1664
12.5786
13.0614
13.5846
14.0287
14.2149
14.0294
13.4321
12.4933
11.3602
10.1984
9.14323
8.26693
7.62137
7.20475
6.99885
6.96505
7.04916
7.19229
7.40596
7.73397
8.2637
9.11375
10.3739
12.0288
13.8863
15.5724
16.6746
16.7937
15.7894
13.8223
11.3503
9.01133
7.43925
7.03466
7.79697
9.33275
10.9782
12.0443
12.0632
10.9673
9.08031
7.02086
5.48376
4.97643
5.63871
7.20258
9.08576
10.5852
11.1325
10.4487
8.57139
5.88938
2.99543
0.550566
-0.91984
-1.09349
0.114882
2.57971
6.03897
10.198
14.803
19.7147
24.8806
30.3171
36.0136
41.84
47.4747
52.3922
55.9089
57.348
56.2637
52.7494
47.5678
42.0792
37.917
36.4311
38.0898
42.0085
45.9545
46.9126
42.1998
30.7409
14.0382
-3.62622
-16.029
-16.758
-1.37466
30.7605
75.6856
125.409
169.83
199.438
207.984
194.159
161.822
118.721
74.1468
36.3602
10.5902
-1.82262
-3.11372
2.35134
9.80605
15.557
17.7826
16.5268
13.0693
9.08675
5.91045
4.16662
3.76643
4.2119
4.98383
5.72403
6.32071
6.8409
7.38091
7.99285
8.57715
8.91976
8.79696
8.09165
6.85725
5.31032
3.79736
2.67803
2.30048
2.93348
4.69616
7.53125
11.2418
15.5741
20.2718
25.1941
30.3036
35.7101
41.566
48.0047
55.0571
62.5989
70.3346
77.8223
84.628
90.391
94.9321
98.2666
100.537
101.954
102.701
102.833
102.231
100.647
97.8013
93.4891
87.6655
80.5133
72.3811
63.7312
55.0337
46.6828
38.9239
31.8328
25.436
19.7418
14.8121
10.7578
7.74296
5.94289
5.43876
6.10199
7.59821
9.43461
11.0535
11.9732
11.9311
10.9052
9.11931
6.98438
4.96935
3.44194
2.5982
2.45768
2.90286
3.7858
4.93298
6.20269
7.45866
8.56002
9.35491
9.71287
9.5806
9.00228
8.19735
7.48352
7.1813
7.4802
8.37893
9.65669
10.9992
12.0791
12.7075
12.8693
12.7249
12.5208
12.4243
12.4533
12.4707
12.2853
11.7606
10.9346
10.0594
9.49027
9.61168
10.6614
12.6359
15.2325
17.9996
20.4771
22.3396
23.4764
23.8999
23.7193
23.01
21.7913
20.02
17.6693
14.8556
11.885
9.27819
7.58052
7.184
8.1681
10.2832
13.0022
15.6558
17.6219
18.526
18.3528
17.4379
16.334
15.6593
15.887
17.2467
19.6605
22.7638
25.9395
28.56
30.1077
30.3644
29.4737
27.925
26.3915
25.5824
26.0363
27.9435
31.073
34.8621
38.6045
41.6754
43.7307
44.7866
45.1288
45.3323
45.9999
47.5929
50.3109
54.0871
58.6503
63.4872
67.9469
71.2868
72.7986
72.0511
69.1394
64.7994
60.3127
57.1858
56.5603
58.6054
62.0785
64.423
62.5026
53.8927
38.2272
17.9917
-1.53167
-13.5086
-11.5555
7.98459
44.3502
91.9668
141.539
182.439
205.642
206.239
184.687
146.494
100.459
56.0687
20.9697
-0.741239
-9.00127
-6.96699
0.565104
8.86946
14.6264
16.4638
14.7934
11.0963
7.10369
4.09864
2.58459
2.44776
3.16876
4.16262
4.99
5.48692
5.75539
6.02203
6.4387
7.08799
7.85667
8.61811
9.2269
9.64413
9.98106
10.4556
11.3633
12.9763
15.426
18.6906
22.6175
27.0003
31.7161
36.7415
42.1491
48.0216
54.3522
60.9867
67.6193
73.8547
79.3702
84.0283
87.9231
91.3256
94.6006
98.0108
101.606
105.168
108.263
110.326
110.833
109.433
106.049
100.827
94.1148
86.3531
78.024
69.5533
61.3056
53.5107
46.2977
39.7012
33.7046
28.3105
23.5207
19.4069
16.0867
13.7492
12.4371
12.0706
12.3778
13.0254
13.6422
13.9379
13.8421
13.4425
13.0056
12.8255
13.1631
14.0976
15.5626
17.3655
19.2635
21.0364
22.4788
23.4412
23.8492
23.7107
23.1296
22.2642
21.3573
20.7353
20.7091
21.4384
22.9235
24.9583
27.1493
29.0347
30.2145
30.4188
29.579
27.8271
25.4449
22.751
20.0101
17.4054
15.0433
12.9708
11.2062
9.76912
8.68911
7.9715
7.65973
7.79082
8.37401
9.36328
10.6481
12.0729
13.3819
14.2902
14.5524
14.0449
12.8222
11.0929
9.21805
7.55958
6.4329
6.02607
6.44129
7.62797
9.43856
11.6893
14.1426
16.5082
18.4712
19.6721
19.847
18.961
17.2497
15.2014
13.44
12.5772
13.0316
14.8233
17.5538
20.5256
22.953
24.2305
24.164
23.0293
21.4542
20.2595
20.1775
21.5953
24.4407
28.2088
32.1472
35.4913
37.6948
38.5792
38.3476
37.5278
36.8376
36.9826
38.5137
41.6379
46.1973
51.6291
56.9896
61.1192
62.8847
61.4935
56.869
49.8105
41.9367
35.3079
31.7286
32.0562
35.6166
40.1267
42.2697
38.8953
28.452
12.0649
-6.17813
-20.0345
-22.9578
-10.2383
19.0358
61.1082
108.128
150.114
177.758
185.046
170.912
139.387
98.3096
56.8554
23.0218
1.63383
-6.47627
-3.91601
4.70771
14.554
22.0358
25.5001
25.2054
22.6003
19.4677
17.1206
16.0437
16.0188
16.4439
16.7069
16.4843
15.7621
14.7941
13.9257
13.3918
13.2687
13.4867
13.8982
14.4579
15.2506
16.4287
18.1812
20.6059
23.6998
27.3377
31.2714
35.2256
38.9572
42.3598
45.4734
48.4156
51.3702
54.5026
57.945
61.792
66.0942
70.8134
75.8609
81.13
86.481
91.7575
96.733
101.183
104.836
107.401
108.563
107.994
105.457
100.848
94.2543
85.9657
76.4427
66.2487
56.0204
46.3583
37.706
30.3605
24.4661
20.018
16.8516
14.7138
13.2032
11.8848
10.3873
8.45051
6.0195
3.25115
0.482917
-1.84614
-3.341
-3.81414
-3.30208
-2.07669
-0.484241
1.17369
2.69519
4.04221
5.29068
6.51942
7.70851
8.72801
9.36809
9.47238
9.06559
8.42141
8.0363
8.4146
9.9147
12.533
15.8669
19.1889
21.6374
22.5471
21.6732
19.3193
16.2282
13.3311
11.4607
11.1154
12.3094
14.5877
17.2092
19.3969
20.6101
20.6562
19.6667
18.0197
16.2403
14.8242
14.1341
14.3948
15.5974
17.5714
20.0546
22.6781
25.0172
26.6422
27.2109
26.5337
24.6489
21.787
18.3805
14.9566
12.0373
10.0292
9.10748
9.2148
10.1041
11.4394
12.834
14.0078
14.7809
15.1112
15.1202
14.9717
14.8793
15.0499
15.6223
16.6247
-3e-006
-3.3e-005
-0.000121
-0.000302
-0.000607
-0.001061
-0.001653
-0.002335
-0.003007
-0.003546
0.001365
0.049315
0.135026
0.231324
0.287042
0.262486
0.115676
-0.139887
-0.435066
-0.632754
-0.566224
-0.132015
0.619162
1.43178
1.92348
1.70806
0.568986
-1.38829
-3.60714
-5.15729
-4.94464
-2.0622
3.90665
12.6927
23.368
34.5845
44.9547
53.452
59.6918
63.9637
66.9352
69.2462
71.1521
72.4016
72.3887
70.5762
66.917
62.1124
57.4612
54.3391
53.428
54.1381
54.54
51.9946
44.3128
31.0615
14.374
-1.12013
-9.4429
-5.19672
14.3449
47.8344
89.6094
130.968
162.52
176.931
170.988
146.537
109.753
69.2211
33.4237
8.45952
-3.29096
-3.17153
4.80035
15.6264
24.9283
30.0108
30.1938
26.4459
20.5916
14.459
9.33232
5.81187
3.88359
3.23749
3.48343
4.32785
5.63972
7.44207
9.77192
12.5887
15.7209
18.8861
21.704
23.8189
24.9675
25.0829
24.4121
23.5394
23.2459
24.3027
27.2502
32.2344
38.914
46.5717
54.2793
61.1902
66.8157
71.1232
74.4627
77.3652
80.3212
83.6071
87.2466
91.0531
94.7806
98.3187
101.727
105.181
108.835
112.602
116.034
118.436
119.024
117.166
112.6
105.536
96.5806
86.5823
76.4137
66.7296
57.8885
50.0337
43.1696
37.3004
32.4733
28.7637
26.1912
24.6711
23.9568
23.6666
23.4448
23.0606
22.4709
21.829
21.3823
21.3027
21.5833
22.0034
22.1877
21.7247
20.3228
17.9707
14.9534
11.8161
9.1615
7.49429
7.07116
7.89358
9.71011
12.0572
14.4242
16.4174
17.8385
18.7009
19.1913
19.5844
20.16
21.1004
22.4699
24.1555
25.9152
27.4452
28.5015
28.9544
28.8045
28.1686
27.217
26.14
25.0897
24.1287
23.2115
22.2445
21.1532
19.8842
18.4551
16.9408
15.4365
14.0659
12.9569
12.2067
11.8892
12.0567
12.7433
13.9466
15.5917
17.5509
19.6102
21.4974
22.98
23.8868
24.135
23.7663
22.9573
21.9772
21.1313
20.6946
20.8388
21.6609
23.1871
25.3125
27.8039
30.388
32.7261
34.4837
35.3907
35.2644
34.1418
32.2233
29.8875
27.6014
25.797
24.792
24.7372
25.6616
27.4473
29.9289
32.8793
36.0298
39.0518
41.5541
43.0615
43.1457
41.5637
38.3559
33.8956
28.8407
23.9428
19.8693
17.008
15.404
14.7292
14.4644
14.1414
13.5039
12.5414
11.4674
10.5506
9.96632
9.69687
9.52939
9.13824
8.31563
7.09701
5.79973
4.96637
5.17097
6.84638
10.0894
14.6481
19.9817
25.4114
30.3548
34.5245
37.9819
41.114
44.4538
48.4618
53.2258
58.3217
62.8654
65.7521
66.1411
63.789
59.3482
54.1981
49.9992
47.971
48.1879
49.3213
48.9737
44.6024
34.799
20.4067
4.87892
-6.38725
-7.55488
5.53891
33.6327
73.1891
116.932
155.61
180.567
186.246
171.728
140.848
100.939
60.5678
27.1911
5.31035
-4.1893
-3.62856
2.87932
11.0203
17.6239
21.2629
22.1694
21.5979
20.9622
21.1819
22.3645
23.8861
24.7573
24.1021
21.5342
17.2577
12.0351
6.9587
3.12836
1.31148
1.69767
3.90406
7.12283
10.3409
12.7202
13.8002
13.6143
12.6615
11.7113
11.5235
12.5952
15.0309
18.5364
22.6355
26.839
30.8246
34.5539
38.2415
42.281
47.0669
52.8519
59.6097
67.0665
74.7832
82.2433
88.9817
94.6074
98.8814
101.683
102.963
102.716
100.953
97.6948
93.0133
87.0483
79.9798
72.0685
63.6542
55.1304
46.9441
39.5438
33.2612
28.3057
24.6632
22.1509
20.4116
18.995
17.4819
15.677
13.6204
11.5722
9.93976
9.06955
9.11798
9.99066
11.2842
12.4541
13.0139
12.7489
11.8593
10.9351
10.746
11.969
14.9147
19.3508
24.5409
29.3642
32.6656
33.6042
31.8837
27.8457
22.2971
16.3536
11.1285
7.43656
5.71277
5.85686
7.42534
9.74866
12.1408
14.0681
15.2845
15.8071
15.9019
15.9125
16.1155
16.5986
17.2776
17.9057
18.2168
18.0969
17.5794
16.9282
16.5113
16.6493
17.484
18.8858
20.4155
21.5193
21.6494
20.4914
18.0379
14.6362
10.9178
7.62608
5.36282
4.52437
5.14531
6.93659
9.38108
11.9327
14.1012
15.5883
16.3141
16.3821
16.026
15.4702
14.8528
14.2339
13.6315
13.0668
12.5943
12.3728
12.6118
13.453
14.9523
16.9385
19.0869
20.9549
22.138
22.3925
21.6957
20.2118
18.319
16.4155
14.8628
13.8579
13.4658
13.6496
14.3242
15.4295
16.8977
18.6893
20.7776
23.0596
25.3671
27.4533
29.0501
29.9456
30.0414
29.4386
28.3987
27.3286
26.689
26.8715
28.0611
30.223
33.0693
36.1815
39.1368
41.6387
43.5594
44.9329
45.916
46.6892
47.4159
48.2164
49.2204
50.599
52.6274
55.5632
59.5423
64.3887
69.5188
73.9367
76.4892
76.1817
72.6661
66.4447
58.9311
52.0349
47.4795
46.0247
47.0129
48.3123
46.994
40.5316
28.1197
11.585
-4.5191
-13.9473
-10.6756
8.97274
44.6138
91.2043
139.955
180.483
203.7
204.365
182.632
143.917
97.2608
52.6866
18.4594
-0.906679
-5.32815
1.53046
13.9418
26.1976
34.2768
36.6451
34.091
28.8777
23.6016
20.1695
19.3213
20.6071
22.8778
24.8403
25.6193
25.0105
23.4507
21.7432
20.7351
20.9891
22.6336
25.3194
28.4585
31.431
33.85
35.6602
37.1607
38.8662
41.2846
44.7401
49.1788
54.2111
59.268
63.7844
67.4461
70.3489
72.94
75.8942
79.8419
85.1343
91.6801
98.9041
105.937
111.907
116.247
118.846
120.113
120.77
121.548
122.897
124.766
126.561
127.3
125.976
121.88
114.827
105.219
93.9127
82.0001
70.5078
60.1845
51.3872
44.1354
38.2227
33.3956
29.4804
26.3544
23.9196
22.0655
20.6054
19.3141
17.9423
16.3027
14.3987
12.4186
10.6648
9.47249
9.09065
9.59298
10.9024
12.7723
14.8758
16.8976
18.5747
19.7319
20.2942
20.2187
19.5528
18.4117
17.0182
15.725
14.8957
14.8313
15.7431
17.6449
20.2831
23.1986
25.8417
27.669
28.3308
27.7625
26.1936
24.0813
21.9927
20.4693
19.8619
20.2522
21.4247
22.9524
24.3589
25.2596
25.4464
24.957
24.0423
23.1054
22.5528
22.6378
23.3997
24.6585
26.1099
27.4085
28.2809
28.5841
28.3677
27.8212
27.1423
26.4781
25.8617
25.2211
24.4651
23.567
22.6181
21.8182
21.405
21.6147
22.5328
23.9885
25.6011
26.8582
27.2828
26.5896
24.7463
22.0134
18.8709
15.9144
13.6777
12.4944
12.4271
13.3124
14.8565
16.7053
18.5494
20.1926
21.504
22.4226
22.9402
23.0425
22.7071
21.9415
20.8225
19.4898
18.0629
16.6135
15.1813
13.7738
12.4014
11.1195
10.0744
9.515
9.76639
11.0621
13.4468
16.6854
20.2878
23.6273
26.0609
27.1092
26.6251
24.8462
22.2877
19.6247
17.4908
16.306
16.2107
17.1659
19.0273
21.7013
25.183
29.5584
34.9296
41.1613
47.7139
53.6012
57.6086
58.6547
56.2682
50.9003
43.9671
37.5393
33.6598
33.4692
36.5643
40.8568
43.1521
40.3744
31.0419
16.307
0.178745
-11.2933
-11.8541
2.71181
32.7075
73.8269
117.958
155.26
176.972
177.936
158.089
122.4
79.2939
38.0982
6.46477
-11.4826
-15.7221
-9.61073
1.70332
13.1056
20.9749
23.8843
22.4089
18.3917
13.929
10.6213
9.18089
9.50513
10.933
12.6613
13.9863
14.4852
14.0495
12.8266
11.1063
9.18914
7.39198
6.00108
5.23843
5.16292
5.71607
6.74684
8.12935
9.82975
11.996
14.8554
18.6586
23.5383
29.4357
36.0056
42.6831
48.9004
54.3134
58.9094
63.0421
67.2836
72.1886
78.0517
84.7673
91.7996
98.4281
104.023
108.299
111.418
113.869
116.186
118.59
120.782
121.884
120.698
116.076
107.34
94.6401
79.0288
62.1558
45.9174
31.9524
21.2987
14.2066
10.2436
8.53867
8.13564
8.25158
8.43825
8.56511
8.642
8.68422
8.67007
8.49909
8.04293
7.24095
6.1758
5.14308
4.45512
4.3771
4.98079
6.13777
7.52212
8.82639
9.84225
10.5398
11.0897
11.7922
12.8927
14.4932
16.4625
18.5248
20.3516
21.746
22.6566
23.2051
23.6106
24.0419
24.5669
25.074
25.3959
25.3748
24.9795
24.3095
23.5409
22.8186
22.1816
21.5556
20.763
19.6426
18.172
16.5218
14.9935
13.9239
13.5413
13.8442
14.6408
15.6321
16.5472
17.2709
17.8703
18.537
19.5082
20.8956
22.615
24.3684
25.7646
26.5168
26.5115
25.8285
24.725
23.5194
22.4357
21.609
21.0316
20.615
20.249
19.9382
19.7437
19.7687
20.0679
20.6518
21.4419
22.3594
23.2999
24.2015
25.05
25.7932
26.3489
26.5219
26.11
24.9973
23.2494
21.1924
19.3158
18.1351
18.0042
18.9826
20.704
22.5335
23.7733
23.9215
22.9004
21.0538
19.0443
17.5501
17.0435
17.6266
19.0343
20.7579
22.2738
23.3117
23.947
24.5909
25.7954
28.0594
31.6764
36.5933
42.4257
48.4103
53.5813
56.8582
57.283
54.3337
48.1734
39.7986
30.8106
23.1176
18.1723
16.2844
16.232
15.5122
11.2529
1.60433
-13.0294
-29.2521
-41.0694
-41.5015
-24.8966
10.7095
62.14
121.194
176.427
216.133
231.625
219.793
183.925
132.74
77.7884
30.1864
-2.25467
-16.678
-15.1349
-3.21747
12.1891
25.0864
31.847
31.7195
26.3349
18.5927
11.4149
6.91964
6.00106
8.41033
13.1022
18.7203
24.0599
28.3287
31.2323
32.8831
33.722
34.3395
35.2656
36.8121
39.028
41.6711
44.2702
46.3246
47.4975
47.6719
47.0081
45.8668
44.7384
44.0934
44.2633
45.3749
47.4705
50.5657
54.6705
59.7899
65.8488
72.6375
-1e-006
-8e-006
-3e-005
-7.4e-005
-0.000152
-0.000266
-0.000411
-0.000572
-0.000716
-0.000809
0.000496
0.012613
0.033345
0.056681
0.074443
0.06827
0.024572
-0.052628
-0.148713
-0.208366
-0.176536
-0.0243
0.234217
0.512787
0.674364
0.584781
0.160654
-0.532521
-1.28312
-1.76077
-1.6039
-0.540967
1.46662
4.18231
7.13551
9.74835
11.5467
12.3061
12.1217
11.4366
10.8656
10.981
12.1662
14.4193
17.4129
20.5908
23.3792
25.3501
26.3096
26.3698
25.8364
25.0684
24.3624
23.8615
23.5602
23.3591
23.1664
22.9479
22.7915
22.8264
23.1788
23.9048
24.9218
25.9958
26.8134
27.0948
26.6847
25.6008
24.0737
22.4211
20.9775
19.9706
19.4609
19.3181
19.3325
19.2956
19.1002
18.7774
18.432
18.2228
18.2473
18.5401
19.0278
19.5738
20.0253
20.289
20.3452
20.1822
19.7824
19.1208
18.1679
16.9057
15.4277
13.8645
12.4069
11.2348
10.4729
10.1267
10.0489
10.0877
10.1453
10.2107
10.407
10.9052
11.8202
13.0988
14.5157
15.6673
16.1279
15.594
14.0338
11.7288
9.21424
7.0798
5.8366
5.75149
6.77759
8.57786
10.6862
12.6108
14.0295
14.8871
15.3591
15.7803
16.5823
18.1418
20.7451
24.4169
28.9336
33.826
38.3951
41.7872
43.1755
41.9299
37.9171
31.7308
24.6223
18.1993
13.9238
12.4051
12.925
13.3942
10.8899
2.82545
-11.6944
-30.831
-49.7829
-61.755
-59.9015
-39.6573
-0.748835
51.9164
109.066
159.254
191.982
200.649
184.399
148.271
101.523
54.9092
17.6946
-4.64333
-11.2932
-5.58889
6.75524
19.7678
28.9823
32.4173
30.5034
25.3277
19.5433
15.3409
13.8125
14.8448
17.4678
20.3296
22.2723
22.6278
21.4069
19.2381
17.1235
16.0442
16.68
19.1373
22.9762
27.4106
31.5401
34.7068
36.69
37.7296
38.3877
39.2962
40.8423
43.0805
45.7531
48.4654
50.9474
53.1867
55.4355
58.1342
61.7202
66.3829
72.0005
78.1316
84.1771
89.5791
93.9776
97.2646
99.5299
100.929
101.594
101.54
100.674
98.8154
95.7977
91.5025
85.8526
78.776
70.1884
60.0264
48.4508
35.9624
23.4611
12.2218
3.68109
-0.914969
-0.87126
3.66801
11.6321
21.2646
30.5591
37.6857
41.448
41.5024
38.3823
33.2317
27.4162
22.1927
18.3782
16.2706
15.6932
16.1879
17.1912
18.1962
18.8361
18.9728
18.6796
18.1514
17.6571
17.5219
18.0761
19.542
21.9687
25.1715
28.7306
32.0726
34.6095
35.8737
35.6587
34.0626
31.4848
28.5286
25.8035
23.7946
22.7989
22.8222
23.6597
24.952
26.2787
27.262
27.6823
27.5158
26.8835
25.9903
25.0169
24.0749
23.1551
22.1572
20.9588
19.5292
18.0084
16.7086
15.9592
15.9739
16.761
18.0435
19.3142
19.9953
19.6203
18.0428
15.507
12.6188
10.1246
8.66779
8.5421
9.62279
11.3926
13.0799
13.9121
13.3747
11.409
8.38488
5.01476
2.09756
0.311623
0.03642
1.26968
3.67437
6.67995
9.67672
12.2209
14.1253
15.4199
16.3138
17.1134
18.0907
19.4402
21.2164
23.311
25.4376
27.1245
27.7635
26.7519
23.6951
18.6715
12.3491
5.91401
0.685864
-2.50013
-3.81717
-4.741
-7.6388
-14.921
-27.7416
-44.8904
-62.369
-74.03
-73.3147
-55.5226
-19.8666
29.4869
83.9635
132.557
164.838
173.96
158.635
123.407
77.2026
30.6005
-7.17366
-30.4676
-38.2007
-33.3464
-21.2587
-7.58853
3.3505
9.53579
11.1409
9.73895
7.31128
5.46767
5.04642
6.12488
8.33746
11.2035
14.3134
17.4098
20.3094
22.7814
24.5594
25.4093
25.2466
24.1685
22.5072
20.7718
19.5008
19.145
19.9818
22.0962
25.4021
29.7094
34.8073
40.4735
46.5058
52.7511
59.068
65.3516
71.5339
77.5536
83.3467
88.825
93.9098
98.5251
102.573
106.018
108.915
111.387
113.577
115.573
117.34
118.73
119.458
119.101
117.245
113.54
107.715
99.703
89.6541
77.9256
65.0754
51.865
39.1509
27.7653
18.4016
11.4807
7.08423
4.96537
4.70549
5.74017
7.52641
9.66957
11.922
14.1576
16.2641
18.0964
19.5162
20.4288
20.8254
20.8604
20.812
21.0169
21.7428
23.07
24.7711
26.4296
27.5418
27.6818
26.6985
24.7941
22.4574
20.3294
19.0146
18.9322
20.1462
22.4066
25.2498
28.1268
30.5307
32.0955
32.6487
32.2348
31.0672
29.3919
27.4995
25.6674
24.077
22.875
22.1772
22.0469
22.4809
23.4926
25.0418
27.0009
29.1392
31.1026
32.53
33.0653
32.4882
30.7769
28.1349
24.9805
21.8228
19.203
17.4697
16.7456
16.8526
17.4466
18.0563
18.1851
17.4692
15.7273
13.0141
9.59756
5.85668
2.22231
-0.851152
-3.00474
-4.01473
-3.81383
-2.50386
-0.298887
2.5345
5.74286
9.08485
12.3642
15.4168
18.0659
20.1403
21.4584
21.8873
21.463
20.5087
19.5603
19.3077
20.5169
23.6994
28.8945
35.4957
42.2644
47.4919
49.5032
47.2276
40.6821
31.1054
20.6764
11.8539
6.38836
4.48715
4.49601
3.27974
-2.52079
-14.873
-32.9336
-52.5317
-66.7656
-68.0234
-50.4934
-12.5566
41.8264
103.577
160.608
201.118
216.904
205.673
171.551
123.713
73.5747
31.4948
4.15216
-6.697
-3.78941
7.30007
20.3548
30.4628
35.1529
34.4201
29.9877
24.2293
19.1517
15.8611
14.5206
14.7477
15.955
17.6487
19.5724
21.6178
23.6827
25.5498
26.9833
27.7321
27.7392
27.2054
26.625
26.5984
27.6125
29.9099
33.3839
37.6458
42.1155
46.1879
49.4557
51.8182
53.4984
54.9654
56.7632
59.2916
62.7042
66.8856
71.5
76.1216
80.4429
84.394
88.1625
92.0824
96.4462
101.294
106.312
110.802
113.869
114.628
112.519
107.458
99.8485
90.4476
80.1248
69.6379
59.4646
49.7867
40.5577
31.695
23.2225
15.3963
8.60509
3.29755
-0.237269
-1.95315
-2.10376
-1.16347
0.327934
1.87207
3.17948
4.20398
5.09418
6.0713
7.28363
8.75776
10.3814
11.9546
13.2188
14.0165
14.3337
14.274
14.0297
13.7862
13.6108
13.4416
13.1277
12.5204
11.6353
10.6797
10.0778
10.3232
11.7904
14.4998
18.0132
21.4965
23.9758
24.6558
23.2408
20.0477
15.9588
12.1726
9.81522
9.5156
11.205
14.2511
17.6548
20.4366
21.9436
22.0775
21.265
20.2367
19.7205
20.2214
21.7693
23.9999
26.3143
28.0872
28.8471
28.4481
27.058
25.1354
23.2493
21.9028
21.3956
21.7885
22.8821
24.294
25.5389
26.2471
26.2139
25.4899
24.3363
23.1141
22.1239
21.5415
21.3212
21.2411
21.0295
20.5121
19.7523
19.0368
18.8456
19.6266
21.5883
24.5921
28.1433
31.5361
34.1169
35.5124
35.8504
35.7969
36.371
38.5273
42.8225
49.1195
56.4288
63.0759
67.1002
66.8725
61.7425
52.4111
40.9102
30.0911
22.7228
20.4973
23.2648
28.7502
33.1427
32.4621
24.2083
8.73348
-10.1882
-26.0644
-31.538
-20.7772
8.18483
52.2532
103.542
151.348
185.066
197.257
185.736
154.091
110.432
64.9368
26.9228
2.44852
-6.87549
-3.52763
7.36934
20.0125
29.7843
34.2504
33.3061
28.5637
22.3571
16.7949
13.1757
11.865
12.5615
14.63
17.4217
20.3696
23.0836
25.2392
26.5878
26.9746
26.3656
24.8812
22.9087
20.9978
19.7077
19.4248
20.3085
22.2735
25.0855
28.4174
31.991
35.6146
39.2581
42.9599
46.8495
51.0393
55.5838
60.5503
65.9908
71.974
78.5038
85.424
92.4756
99.2242
105.17
109.84
112.925
114.369
114.398
113.408
111.784
109.763
107.347
104.287
100.263
94.9857
88.3728
80.5851
72.0407
63.2404
54.6017
46.3845
38.6797
31.4893
24.8476
18.8661
13.7735
9.80495
7.13046
5.76059
5.44381
5.74319
6.21639
6.5621
6.67003
6.64074
6.72241
7.13436
7.95621
9.04506
10.0559
10.5075
10.0229
8.41207
5.83759
2.80735
0.016079
-1.79974
-2.1096
-0.69891
2.2001
5.89068
9.4817
12.0788
13.0815
12.3129
10.119
7.28433
4.80339
3.59055
4.19575
6.62993
10.3835
14.5768
18.2054
20.4426
20.8613
19.5464
17.0336
14.1306
11.6453
10.1697
9.92156
10.7582
12.254
13.8873
15.2086
15.978
16.2435
16.2656
16.3655
16.7967
17.6366
18.7821
19.9551
20.8744
21.3405
21.3356
21.0285
20.711
20.6434
20.9258
21.5079
22.1628
22.6199
22.7128
22.3782
21.7433
21.0238
20.4833
20.3025
20.5046
21.0608
21.9235
23.0981
24.6214
26.5095
28.8126
31.4678
34.3573
37.3458
40.3217
43.2637
46.2543
49.3539
52.4501
55.1127
56.6199
56.1016
52.859
46.7975
38.659
30
22.827
18.8945
18.9442
22.1292
26.0475
27.473
23.554
13.2191
-1.84906
-17.1365
-26.3316
-23.2683
-4.10773
30.8038
76.4238
123.95
163.057
184.78
184.156
161.647
122.942
77.2137
34.4026
2.43226
-14.6646
-17.282
-9.37346
3.29808
15.2281
22.7161
24.5311
21.6485
16.3317
10.9629
7.33941
6.24122
7.57243
10.7406
15.0275
19.8344
24.7186
29.2911
33.1296
35.7683
36.8568
36.3734
34.7088
32.7065
31.4298
31.8315
34.4052
39.041
44.9846
51.1054
56.2637
59.7386
61.4269
61.8606
62.0021
62.9177
65.4059
69.7495
75.7098
82.5917
89.5573
95.9364
101.389
105.915
109.791
113.422
117.121
120.985
124.839
128.294
130.823
131.894
131.072
127.991
122.49
114.544
104.293
92.0571
78.3894
64.009
49.8091
36.7774
25.8119
17.5388
12.2088
9.64416
9.30859
10.3741
11.9558
13.2824
13.8465
13.4605
12.2619
10.5877
8.84984
7.44703
6.62818
6.53473
7.13333
8.25319
9.649
11.1303
12.5393
13.7999
14.8913
-1e-006
-1.3e-005
-4.8e-005
-0.000122
-0.00025
-0.00044
-0.000682
-0.000948
-0.001196
-0.00137
0.000675
0.019938
0.053752
0.095363
0.126448
0.115098
0.040781
-0.09078
-0.230766
-0.316063
-0.265286
-0.03246
0.34635
0.741668
0.929373
0.737804
0.086737
-0.901046
-1.88959
-2.42496
-2.05324
-0.464142
2.37469
6.17299
10.3951
14.4506
17.8427
20.3283
21.9238
22.8475
23.3753
23.7486
24.0448
24.1544
23.873
22.9874
21.424
19.3146
16.9458
14.7428
13.1487
12.4618
12.7779
13.9586
15.6596
17.4093
18.7679
19.4433
19.3553
18.6426
17.6122
16.6496
16.0424
15.9066
16.1361
16.4263
16.4223
15.8416
14.5699
12.703
10.58
8.64658
7.34581
6.99401
7.71922
9.5489
12.3666
15.9866
20.1986
24.6706
28.88
32.1308
33.5966
32.5168
28.5128
21.9219
13.8666
6.09073
0.41019
-1.99222
-1.25607
0.957256
1.84055
-1.55989
-10.9142
-25.4242
-41.3257
-52.5429
-52.3858
-35.8219
-1.55392
46.8275
101.277
151.222
186.382
199.69
189.293
158.964
116.791
72.686
35.5742
11.2024
1.10283
2.96664
12.0568
23.0669
31.7771
35.9112
35.1883
30.7746
24.5307
18.2266
13.1636
10.0075
8.93367
9.80827
12.2896
15.8669
19.9611
23.9949
27.4481
30.0051
31.5708
32.3157
32.5978
32.8654
33.5009
34.776
36.8035
39.5566
42.9103
46.6816
50.6893
54.7444
58.6904
62.4306
65.9385
69.2274
72.3792
75.4586
78.4821
81.4707
84.4265
87.4172
90.5025
93.7827
97.3762
101.369
105.711
110.145
114.255
117.496
119.32
119.223
116.82
111.924
104.576
95.0551
83.8719
71.7148
59.4275
47.8609
37.767
29.6233
23.5113
19.1422
15.9672
13.3394
10.7414
7.94625
5.0605
2.47772
0.649455
-0.074477
0.361635
1.70431
3.43665
5.0101
6.03834
6.33889
5.99561
5.28601
4.56123
4.06064
3.85323
3.86825
3.95336
4.04774
4.23345
4.70496
5.69511
7.3897
9.76108
12.5585
15.3008
17.4388
18.5284
18.4077
17.234
15.4229
13.5633
12.1978
11.6975
12.1602
13.3391
14.8254
16.144
16.9161
16.9528
16.2743
15.0625
13.5896
12.1486
10.9783
10.2096
9.88121
10.0007
10.5631
11.5421
12.8511
14.3246
15.7493
16.8431
17.362
17.1309
16.1429
14.5542
12.6775
10.9238
9.62154
8.94804
8.87868
9.25298
9.77355
10.1522
10.1968
9.88573
9.40582
9.0676
9.17919
9.96709
11.5194
13.6911
16.156
18.5
20.3516
21.4689
21.867
21.7666
21.4891
21.3837
21.6632
22.3904
23.4532
24.5936
25.5692
26.262
26.75
27.2325
27.9616
29.0905
30.5867
32.2873
33.8721
35.0484
35.6426
35.7304
35.6331
35.7574
36.4666
37.9268
40.0488
42.5083
44.8842
46.8079
48.1368
48.9652
49.5324
50.0649
50.5254
50.5102
49.2784
46.0564
40.4663
32.8362
24.3034
16.5612
11.2493
9.17312
9.6946
10.6135
8.82628
1.55713
-12.2018
-30.5856
-48.7143
-59.7188
-56.6949
-35.1992
4.82777
58.3175
115.973
166.642
200.324
210.951
197.963
166.22
124.295
81.8107
46.7136
23.432
12.3249
10.5764
13.7108
17.4689
19.0793
17.7955
14.5697
11.1642
9.1937
9.48094
11.8539
15.4122
18.9634
21.4783
22.4461
21.9405
20.4736
18.8065
17.6505
17.5321
18.681
20.9966
24.2075
27.9047
31.6549
35.0969
37.9819
40.2284
41.8877
43.1221
44.1233
45.1614
46.4965
48.4017
51.1021
54.7585
59.4935
65.2449
71.8427
78.9592
86.2223
93.255
99.7378
105.448
110.307
114.372
117.833
120.932
123.784
126.351
128.381
129.405
128.823
126.076
120.765
112.827
102.619
90.8174
78.2589
65.7815
54.1217
43.8161
35.1889
28.3626
23.3431
20.0551
18.3248
17.911
18.4405
19.478
20.6047
21.4501
21.8212
21.6948
21.1786
20.5072
19.9332
19.6184
19.5985
19.7824
20.0299
20.2605
20.4404
20.6029
20.811
21.1469
21.6808
22.385
23.1291
23.7664
24.1742
24.3257
24.2858
24.1956
24.2392
24.5796
25.3612
26.6065
28.1487
29.7426
31.1175
32.0225
32.324
32.0259
31.2623
30.2436
29.2892
28.6671
28.5472
28.9723
29.8573
30.99
32.0707
32.7875
32.9116
32.4093
31.4542
30.3748
29.529
29.166
29.3299
29.8269
30.2922
30.3291
29.6456
28.2365
26.4306
24.7341
23.6591
23.4943
24.2177
25.5245
26.9015
27.7756
27.6982
26.5133
24.3578
21.5925
18.6565
16.0033
13.9979
12.9718
13.1384
14.5506
17.0955
20.4495
24.1186
27.4674
29.8252
30.7311
30.06
28.1285
25.6066
23.2934
21.9079
21.8567
23.1303
25.3104
27.6913
29.5549
30.3836
30.0372
28.7422
26.9732
25.271
24.0983
23.7287
24.1507
25.1311
26.3172
27.3655
28.1065
28.5288
28.8116
29.1679
29.859
31.0386
32.7022
34.6208
36.4393
37.7374
38.252
37.9751
37.1904
36.43
36.3707
37.6217
40.4425
44.5495
49.0837
52.7887
54.474
53.4421
49.7658
44.4037
38.8225
34.4454
31.9118
30.5515
28.4016
22.9343
12.2809
-3.52141
-21.7901
-37.2832
-43.3945
-34.1598
-6.45927
38.3241
93.9543
150.553
197.029
224.049
226.53
205.01
165.357
116.978
70.0808
32.9877
10.3155
2.37965
5.94783
15.844
26.7813
34.7603
37.8944
36.3395
31.6021
25.6515
20.2268
16.3773
14.441
14.2023
15.1334
16.6556
18.3137
19.859
21.2027
22.3434
23.3229
24.1819
24.9622
25.7643
26.6834
27.8386
29.3518
31.3774
34.059
37.4758
41.5971
46.3044
51.4338
56.7999
62.1576
67.2452
71.794
75.586
78.4886
80.5254
81.9127
83.0906
84.685
87.3532
91.524
97.2671
104.184
111.491
118.185
123.269
126.034
126.225
124.033
119.972
114.62
108.358
101.28
93.2596
84.0817
73.629
62.0943
50.0476
38.3957
28.1412
20.1056
14.7191
11.924
11.2446
11.9183
13.1003
14.0687
14.4109
14.0606
13.2447
12.3419
11.7148
11.6235
12.1461
13.199
14.5474
15.9088
17.0613
17.9106
18.5079
18.9914
19.5862
20.5003
21.862
23.7101
25.9416
28.3171
30.4961
32.1732
33.1379
33.2691
32.6562
31.4873
30.021
28.5
27.044
25.6251
24.1874
22.7115
21.3133
20.2715
19.9501
20.7084
22.6977
25.7671
29.3955
32.7681
34.9886
35.3805
33.6562
30.0219
25.1377
19.9149
15.308
12.0637
10.552
10.6926
12.1053
14.247
16.596
18.7734
20.5603
21.8997
22.8338
23.4148
23.6337
23.4056
22.6361
21.2918
19.4228
17.1872
14.8872
12.8853
11.509
11.0148
11.4564
12.6459
14.2079
15.6964
16.6815
16.819
16.0563
14.5699
12.7672
11.1766
10.2614
10.2691
11.1939
12.7868
14.6028
16.1272
16.9438
16.8854
16.0803
14.8917
13.8059
13.2369
13.4115
14.2961
15.5947
16.846
17.6564
17.8458
17.4803
16.9509
16.7548
17.3167
18.8604
21.3054
24.3066
27.394
30.1533
32.376
34.1461
35.6936
37.2221
38.6825
39.6626
39.4843
37.4871
33.4197
27.6981
21.5125
16.5003
14.1201
14.8828
17.7953
20.405
19.5145
12.4484
-1.57406
-20.403
-38.9209
-50.1623
-47.3604
-26.3669
12.4904
63.7591
117.928
163.78
191.45
195.189
174.977
136.414
88.941
43.0715
7.5084
-12.8365
-17.6456
-10.4638
2.92721
16.6031
26.2009
29.7361
27.6482
21.9819
15.3312
9.90634
6.98671
6.75384
8.52922
11.2229
13.7706
15.5018
16.2204
16.2282
16.1485
16.6849
18.4008
21.558
25.9925
31.1271
36.1469
40.2801
43.0153
44.3266
44.633
44.7068
45.4218
47.4898
51.1838
56.2845
62.1792
68.1017
73.4154
77.7643
81.2227
84.2303
87.3587
91.1144
95.72
101.006
106.514
111.654
115.907
118.959
120.709
121.249
120.628
118.77
115.394
110.094
102.56
92.7929
81.2284
68.7447
56.4607
45.4728
36.6017
30.1877
25.9816
23.2674
21.1206
18.7323
15.5852
11.6021
7.06591
2.57708
-1.21389
-3.74574
-4.75378
-4.27089
-2.63659
-0.36033
1.99138
3.91474
5.03812
5.21372
4.5394
3.34751
2.09525
1.23937
1.13054
1.91776
3.50963
5.54721
7.54781
9.08681
9.9035
10.0027
9.65057
9.2507
9.20874
9.78971
11.0001
12.6072
14.2575
15.5788
16.3523
16.6253
16.6315
16.6986
17.1529
18.1307
19.5906
21.283
22.8306
23.8955
24.254
23.8574
22.8095
21.2817
19.4436
17.4437
15.3958
13.4188
11.6321
10.2767
9.63104
9.97554
11.4465
13.9493
17.1137
20.3214
22.8827
24.1674
23.821
21.8974
18.8617
15.5004
12.6846
11.0812
11.0089
12.2966
14.4073
16.5851
18.1193
18.5499
17.8391
16.3571
14.6956
13.4487
12.9882
13.4067
14.4405
15.6181
16.4707
16.6574
16.1083
15.0974
14.0522
13.4412
13.6652
14.8845
17.0353
19.8321
22.7951
25.4395
27.3717
28.3357
28.3235
27.5825
26.4555
25.3748
24.6984
24.5771
24.9235
25.4889
25.9577
26.0704
25.7285
25.0231
24.1859
23.511
23.2557
23.5618
24.467
25.9236
27.8738
30.2337
32.9056
35.7308
38.5107
41.0311
43.1583
44.8977
46.4316
48.0288
49.9156
52.0255
53.8945
54.6926
53.5426
49.9991
44.3565
37.744
31.8451
28.2
27.4291
28.6952
29.6918
27.4457
19.6793
6.20774
-10.2352
-24.2201
-29.0366
-18.9171
8.71771
51.7226
103.162
152.905
190.263
207.154
200.393
172.542
131.016
85.7837
46.3962
19.4374
7.12448
7.37338
15.1744
24.681
31.1662
32.225
27.9977
20.4976
12.4834
6.291
3.1694
3.08637
5.07815
7.90095
10.5182
12.3983
13.5361
14.2837
15.1262
16.3968
18.225
20.5125
23.0939
25.8325
28.673
31.6185
-2e-006
-1.9e-005
-6.3e-005
-0.000149
-0.000298
-0.000516
-0.000787
-0.001076
-0.001328
-0.001481
0.001547
0.028527
0.068052
0.10563
0.136069
0.122264
0.029993
-0.121995
-0.287267
-0.376776
-0.3032
-0.038339
0.387685
0.829686
1.05986
0.866576
0.157886
-0.965099
-2.1479
-2.86011
-2.52333
-0.721678
2.64058
7.27922
12.5421
17.5704
21.5421
23.8735
24.43
23.4971
21.6749
19.6605
18.0008
16.9499
16.4073
15.9866
15.2416
13.888
11.9376
9.71504
7.7545
6.55971
6.42525
7.31022
8.83072
10.4033
11.5006
11.8573
11.6233
11.2646
11.386
12.5058
14.7531
17.793
20.9366
23.3078
24.19
23.3423
21.1003
18.3061
16.0206
15.1333
16.1092
18.8033
22.5033
26.1984
28.8988
29.9679
29.3076
27.3561
24.8863
22.7409
21.5711
21.6696
22.9141
24.8419
26.8281
28.2697
28.805
28.3458
27.0818
25.4289
23.8649
22.8113
22.5296
23.022
24.0579
25.2886
26.3344
26.8827
26.7831
26.0444
24.8295
23.408
22.0217
20.819
19.8693
19.1827
18.8197
18.8415
19.3222
20.2868
21.6852
23.3067
24.8175
25.8153
25.9662
25.113
23.3747
21.1113
18.8103
16.9304
15.8048
15.5081
15.9444
16.8663
18.0096
19.1823
20.316
21.4302
22.5158
23.4839
24.1925
24.4243
24.0141
22.9575
21.4513
19.866
18.6632
18.2128
18.6715
19.9276
21.646
23.3785
24.7261
25.4612
25.5777
25.2731
24.8653
24.6499
24.7832
25.2768
26.0695
27.0898
28.2665
29.556
30.9331
32.3361
33.6818
34.8304
35.6971
36.3352
37.0402
38.3091
40.6571
44.4261
49.5289
55.2341
60.2746
63.1323
62.524
57.9629
50.1378
40.8223
32.4594
27.2207
26.0986
28.2592
31.0582
30.8358
24.3665
10.4666
-8.86385
-28.3814
-40.7541
-38.7413
-17.7327
22.2576
75.9216
133.586
183.639
215.683
223.392
206.209
169.25
121.606
73.6829
34.3345
8.84857
-1.81804
-0.477817
7.86961
17.9442
25.7394
29.2829
28.6005
25.0964
20.6692
16.983
14.9714
14.7716
15.94
17.7257
19.4105
20.4395
20.5787
19.9394
18.8856
17.9597
17.7298
18.6186
20.8064
24.1592
28.3416
32.886
37.3154
41.2857
44.6791
47.5536
50.0148
52.2292
54.3331
56.457
58.774
61.4969
64.872
69.0955
74.2501
80.2429
86.7808
93.3448
99.3503
104.29
107.897
110.198
111.461
112.148
112.743
113.577
114.71
115.801
116.217
115.152
111.866
105.861
97.0373
85.7802
72.9218
59.5582
46.8418
35.6935
26.6781
19.8974
15.0999
11.793
9.46634
7.72262
6.40652
5.58791
5.48415
6.32589
8.1896
10.9035
14.0778
17.1329
19.429
20.4493
19.9664
18.1335
15.42
12.5612
10.2797
9.13032
9.34077
10.7296
12.772
14.8139
16.2757
16.8518
16.6343
15.9822
15.3826
15.2517
15.7463
16.7062
17.7248
18.3208
18.2201
17.4742
16.4566
15.6755
15.5967
16.4114
17.9677
19.7783
21.2053
21.7138
21.1349
19.7252
18.1105
16.9832
16.8976
18.003
20.0012
22.2155
23.8402
24.2203
23.1298
20.823
17.9728
15.4224
13.8916
13.7773
15.0278
17.1735
19.5356
21.4188
22.3269
22.0856
20.9124
19.2773
17.7318
16.8207
16.8826
17.9595
19.7733
21.7929
23.4134
24.1304
23.6809
22.135
19.8823
17.5581
15.8201
15.1446
15.7154
17.3095
19.4763
21.6856
23.4649
24.5779
25.0316
25.0097
24.8263
24.7193
24.7951
24.9825
25.141
25.1812
25.0979
24.9629
24.8986
25.0003
25.2845
25.6234
25.7836
25.5187
24.7073
23.4201
21.9853
20.8858
20.6313
21.5912
23.8966
27.373
31.5707
35.8342
39.5205
42.152
43.542
43.7928
43.236
42.4288
41.9679
42.3554
43.9192
46.6374
50.1468
53.7442
56.478
57.394
55.8663
51.9397
46.4002
40.6451
36.2113
34.0681
34.0133
34.4039
32.5495
25.7312
12.5877
-5.68134
-24.7973
-38.1713
-38.7219
-21.3287
14.9926
65.9571
122.516
173.025
206.443
215.551
199.091
162.066
114.152
66.7494
29.6745
8.56646
3.88339
11.5492
24.9214
37.225
43.7181
42.7602
35.6262
25.3869
15.4894
8.50943
5.45446
5.79686
8.0768
10.6748
12.3982
12.8023
12.1537
11.1345
10.5025
10.8199
12.3655
15.0437
18.5434
22.508
26.5675
30.4618
34.0068
37.1491
39.9394
42.5134
45.0823
47.7936
50.7011
53.7304
56.7597
59.6364
62.2781
64.7563
67.3612
70.5455
74.7659
80.3114
87.1155
94.7077
102.304
108.985
113.931
116.633
117.034
115.489
112.621
109.103
105.358
101.454
97.1261
91.8872
85.2287
76.8538
66.8511
55.7327
44.3717
33.7347
24.7138
17.9008
13.4514
11.131
10.3742
10.512
10.9298
11.2307
11.3893
11.5797
12.1028
13.2323
15.0766
17.5479
20.2791
22.8036
24.6599
25.5719
25.5009
24.5879
23.0978
21.3354
19.602
18.0687
16.7952
15.7808
15.0317
14.5734
14.4725
14.796
15.5635
16.7196
18.1659
19.7435
21.3041
22.7105
23.8728
24.7997
25.5305
26.1207
26.5531
26.8084
26.8493
26.6629
26.2345
25.5531
24.6474
23.5108
22.2125
20.8762
19.7061
18.9683
18.969
19.933
21.836
24.3786
27.0113
29.0422
29.8463
29.0463
26.6705
23.158
19.2768
15.9141
13.7661
13.1864
14.1126
16.1667
18.7921
21.3929
23.5077
24.89
25.4954
25.392
24.7041
23.6136
22.3651
21.2694
20.6935
20.9026
21.9907
23.783
25.8437
27.5138
28.1533
27.3326
25.0381
21.7448
18.2655
15.5211
14.1968
14.5989
16.5286
19.3787
22.3509
24.7159
26.1008
26.5067
26.2764
25.9192
25.8414
26.2109
26.9287
27.6944
28.1374
27.9923
27.2519
26.1961
25.2423
24.8188
25.1753
26.3235
28.065
30.0745
32.0983
34.0476
36.0592
38.4703
41.6459
45.78
50.6722
55.6997
59.8397
61.8905
60.8444
56.3001
48.7512
39.6176
30.9558
24.8112
22.4318
23.6544
26.6868
28.4998
25.9018
16.9146
2.02433
-15.3017
-29.1586
-32.7887
-20.8494
8.52131
52.4863
103.68
151.916
186.92
201.265
192.428
163.456
121.886
77.4062
39.1067
13.0977
1.35485
1.88338
10.0285
20.3893
28.5819
32.2565
31.2038
26.821
21.1622
16.1009
12.7023
11.1841
11.1357
11.8993
12.917
13.9198
14.941
16.1324
17.7069
19.7861
22.3379
25.1881
28.0738
30.7345
32.9752
34.7694
36.2142
37.5421
39.0393
40.9901
43.5521
46.7243
50.3859
54.3768
58.5629
62.8939
67.3491
71.889
76.4049
80.6941
84.5331
87.7581
90.3684
92.6762
95.1966
98.5033
102.98
108.594
114.79
120.575
124.737
126.173
124.125
118.431
109.55
98.4028
86.0353
73.4146
61.2567
50.0415
40.02
31.316
24.0859
18.5093
14.7364
12.8165
12.5883
13.5994
15.1844
16.6303
17.3907
17.1553
15.9735
14.1998
12.3965
11.1845
10.9578
11.8527
13.6933
16.136
18.7291
21.0666
22.8791
24.0825
24.7167
24.8886
24.7167
24.2694
23.6147
22.8429
22.1011
21.5743
21.3677
21.5719
22.1682
23.0162
23.9444
24.7941
25.4859
26.0364
26.5176
26.9543
27.2386
27.1693
26.5359
25.2149
23.3134
21.1413
19.1795
17.982
17.9365
19.0421
20.9426
22.9915
24.4965
24.9472
24.2125
22.5167
20.3547
18.3223
16.9282
16.356
16.474
16.96
17.4707
17.8008
17.9292
17.9759
18.1002
18.4275
18.9138
19.3802
19.6311
19.573
19.2932
19.0534
19.2055
19.9745
21.3081
22.8806
24.1706
24.6555
24.0213
22.3618
20.1406
18.0505
16.7488
16.571
17.4677
18.999
20.5729
21.6355
21.8891
21.3889
20.5003
19.6817
19.3493
19.6601
20.4861
21.5258
22.4518
22.9986
23.0543
22.6917
22.2354
22.1299
22.8613
24.8042
28.1815
32.965
38.8154
45.0669
50.825
55.2496
57.7977
58.4734
57.9337
57.3339
58.027
61.1047
66.8891
74.6559
82.6772
88.6739
90.5785
87.3507
79.4522
68.8892
58.5962
51.4499
49.0589
50.9378
54.3918
55.4126
50.3099
37.5185
18.8351
-0.462803
-12.8198
-10.7684
10.3288
50.162
102.768
157.721
202.891
227.898
227.129
201.371
157.451
106.057
58.5831
23.9401
6.3844
4.9806
14.7947
28.9933
41.1684
47.1292
45.6923
38.3116
28.0036
17.989
10.587
6.76354
6.18662
7.70926
9.97962
11.929
13.0287
13.3092
13.1685
13.068
13.2607
13.7158
14.1668
14.2868
13.8105
12.677
11.1115
9.64994
8.96258
9.73242
12.3831
16.9913
23.2775
30.671
38.4448
45.8316
52.1949
57.2057
60.8519
63.4855
65.6826
68.1636
71.6379
76.6104
83.2164
91.149
99.6489
107.653
114.024
117.83
118.564
116.245
111.44
105.063
98.0768
91.1929
84.7207
78.5141
72.1093
65.0315
56.9941
48.1207
38.9867
30.4646
23.4613
18.6348
16.1706
15.7259
16.5413
17.6532
18.1734
17.559
15.8158
13.4493
11.3021
10.2437
10.8956
13.436
17.5109
22.3591
27.0079
30.6127
32.6729
33.1219
32.3327
30.8999
29.4144
28.2976
27.7519
27.7597
28.1604
28.8245
29.7245
30.9357
32.5311
34.43
36.3906
38.0622
39.029
39.0256
38.0382
36.3237
34.3866
32.8079
32.0399
32.2683
33.395
35.1067
36.9947
38.709
39.9968
40.7129
40.7991
40.2378
39.0173
37.121
34.6693
31.9109
29.1962
26.8768
25.2058
24.2225
23.8381
23.8635
24.1292
24.5856
25.3085
26.4631
28.1441
30.2446
32.4239
34.175
35.0493
34.8177
33.5861
31.8566
30.3389
29.6861
30.3539
32.3627
35.2911
38.4451
41.1163
42.8791
43.676
43.7367
43.5086
43.4375
43.7503
44.4323
45.2462
45.8388
46.0347
45.9097
1e-006
1.7e-005
7.3e-005
0.000195
0.000378
0.000563
0.000625
0.000367
-0.000422
-0.00189
-0.006497
-0.034211
-0.098791
-0.177544
-0.176556
0.010499
0.432551
1.02899
1.53247
1.56564
0.771248
-0.93015
-3.11018
-4.84649
-4.96825
-2.57986
2.32105
8.42752
13.2112
13.672
7.59312
-5.15238
-21.8423
-37.077
-44.1081
-36.9936
-12.8994
26.3433
74.1034
120.401
154.634
168.609
159.025
128.437
84.4078
37.1722
-3.33663
-30.1591
-40.7883
-37.1657
-24.3694
-8.5683
4.98738
13.2249
15.5926
13.5051
9.31978
5.28077
2.85063
2.50881
3.98603
6.57813
9.56975
12.455
15.0347
17.259
19.117
20.5758
21.5312
21.954
21.8964
21.5943
21.4659
22.0361
23.7803
27.0166
31.7829
37.8116
44.5631
51.3741
57.6634
63.03
67.329
70.6757
73.383
75.8552
78.444
81.4271
85.0377
89.4744
94.8804
101.296
108.627
116.596
124.752
132.416
138.864
143.389
145.459
144.807
141.446
135.621
127.763
118.406
108.149
97.5729
87.2014
77.446
68.5515
60.5863
53.5129
47.1502
41.3224
35.9591
31.1343
27.0478
23.9035
21.7949
20.6419
20.1874
20.0049
19.6617
18.8223
17.4117
15.6099
13.7738
12.2863
11.4368
11.3061
11.796
12.7032
13.7786
14.8388
15.8227
16.7665
17.7752
18.8667
20.0239
21.1601
22.2285
23.2068
24.1238
25.0459
25.9918
26.91
27.6044
27.847
27.43
26.3148
24.7201
23.1022
22.0323
22.0076
23.3042
25.8621
29.2017
32.5192
34.9349
35.6978
34.3992
31.1481
26.5094
21.4121
16.9535
14.0744
13.3558
14.7915
17.8269
21.5406
24.9339
27.1943
27.9394
27.2754
25.7357
24.0439
22.7977
22.2627
22.3192
22.5502
22.536
22.0457
21.2405
20.616
20.8308
22.3928
25.3859
29.2835
33.1226
35.7905
36.4825
35.0492
32.1046
28.9257
27.0483
27.6975
31.319
37.2866
43.9422
49.0891
50.6795
47.5301
39.8413
29.2923
18.6287
10.8074
7.9177
10.2092
15.7681
20.9575
21.5876
14.6002
-0.41068
-20.4084
-39.2772
-49.4049
-44.0524
-19.8573
21.5873
73.545
125.687
166.771
187.796
184.549
158.728
117.314
70.3605
28.0669
-1.94061
-16.2905
-16.0635
-5.74795
8.68816
21.8116
30.1364
32.6693
30.4826
25.7294
20.6298
16.7117
14.5808
14.0571
14.5845
15.6567
17.0505
18.801
21.0392
23.7698
26.7325
29.4667
31.4677
32.4331
32.3941
31.7424
31.1182
31.22
32.5852
35.4015
39.4579
44.2838
49.2793
53.9272
57.9173
61.2176
63.9996
66.5722
69.2361
72.1831
75.4808
79.1017
83.0306
87.2621
91.796
96.6046
101.579
106.493
110.959
114.471
116.518
116.693
114.835
111.008
105.42
98.389
90.2366
81.2166
71.4982
61.2037
50.5073
39.7283
29.3968
20.1568
12.6793
7.50433
4.89902
4.82566
6.85321
10.2599
14.1443
17.6138
19.9312
20.6868
19.8264
17.6389
14.7104
11.7974
9.57465
8.45076
8.47791
9.38635
10.6465
11.7033
12.1616
11.9463
11.3037
10.7323
10.711
11.5345
13.2029
15.391
17.6135
19.4341
20.5987
21.1085
21.2158
21.2616
21.5105
22.0411
22.6802
23.1045
23.0239
22.2833
20.9165
19.1727
17.415
16.035
15.3235
15.371
16.081
17.2304
18.5759
19.9072
21.0734
22
22.6453
23.0197
23.1313
22.9556
22.4675
21.6956
20.7686
19.9636
19.5888
19.9609
21.3299
23.784
27.1618
31.0184
34.7774
37.8132
39.6366
40.0267
39.1301
37.3962
35.5037
34.1926
34.109
35.6604
39.0121
43.9812
50.0943
56.6049
62.4648
66.4733
67.5277
64.9596
58.8959
50.406
41.3163
33.697
29.171
28.1297
29.2934
29.9575
26.8878
17.8131
2.78415
-15.1482
-30.2293
-35.4858
-24.9681
3.95249
49.0744
103.301
156.247
196.998
217.193
213.313
187.621
147.271
102.081
61.6564
32.7785
18.0804
16.041
22.2528
31.2973
38.5647
41.4755
39.6508
34.4827
28.1509
22.7111
19.4032
18.554
19.7315
22.1467
25.0016
27.7031
29.935
31.6729
33.073
34.2889
35.4509
36.614
37.7587
38.8464
39.7603
40.398
40.685
40.6919
40.6447
40.8628
41.683
43.326
45.8905
49.2416
53.0598
56.8999
60.3359
63.0876
65.0805
66.4825
67.6004
68.8065
70.4454
72.7108
75.5604
78.7407
81.7787
84.1165
85.1758
84.4483
81.5848
76.4672
69.2522
60.3117
50.1794
39.5245
29.0402
19.4066
11.1916
4.82506
0.510578
-1.77579
-2.28842
-1.48827
0.03119
1.63284
2.82124
3.36166
3.36901
3.25415
3.57376
4.81934
7.23302
10.6863
14.6038
18.1171
20.3459
20.6895
19.0459
15.8764
12.0682
8.65464
6.54996
6.20286
7.53994
10.0041
12.7874
15.1263
16.517
16.8372
16.2824
15.2379
14.0896
13.0623
12.2035
11.4063
10.5169
9.46639
-0.165425
-0.283923
0.311537
1.64097
3.51831
5.58564
7.48797
8.95632
9.95116
10.7079
11.5632
12.7595
14.2085
15.4577
15.7407
14.3291
10.893
5.76547
-0.032257
-5.09293
-8.25138
-9.24396
-9.12945
-10.2154
-15.1545
-25.7385
-41.6752
-59.8986
-74.7897
-79.5678
-68.3678
-38.4554
8.27354
65.0945
121.87
167.552
193.151
194.188
171.911
132.76
86.4631
43.2161
11.0141
-6.12798
-8.58018
-0.253799
13.1296
25.9836
34.3862
36.7997
33.9385
27.933
21.2851
16.0256
13.2756
13.12
14.9366
17.7583
20.6154
22.8478
24.1378
24.5273
24.2735
23.7641
23.4029
23.5598
24.5308
26.3935
29.0337
32.1643
35.4045
38.4208
41.0233
43.1921
45.1092
47.1015
49.4915
52.4632
56.088
60.2265
64.7119
69.3854
74.1696
79.0369
83.9947
88.9942
93.8837
98.4072
102.329
105.519
108.016
110.028
111.741
113.184
114.148
114.206
112.787
109.358
103.609
95.6119
85.8307
75.0123
63.9441
53.3352
43.7212
35.4282
28.6166
23.309
19.4548
16.9043
15.4241
14.6551
14.1461
13.4656
12.3077
10.6376
8.72464
6.99819
5.9233
5.85296
6.87029
8.70938
10.8662
12.7696
13.987
14.3725
14.1069
13.6102
13.4309
13.9751
15.4347
17.679
20.2998
22.7327
24.4643
25.2045
24.991
24.1297
23.0701
22.2671
21.953
22.074
22.2665
21.9883
20.7589
18.3936
15.1376
11.6158
8.71044
7.22805
7.6684
9.99958
13.6489
17.6683
21.0125
22.9131
23.1029
21.8173
19.74
17.7103
16.4537
16.3375
17.293
18.9053
20.6024
21.9019
22.5638
22.5988
22.1962
21.6728
21.27
21.0764
21.0174
20.932
20.6881
20.2961
19.8674
19.561
19.5229
19.8139
20.3685
21.0385
21.6896
22.2669
22.8502
23.6416
24.8627
26.6233
28.8031
31.0874
33.022
34.1585
34.2076
33.1686
31.3637
29.3916
27.9037
27.3728
28.0008
29.6015
31.671
33.5155
34.489
34.1907
32.5797
29.965
26.9371
24.1333
22.1195
21.2034
21.4361
22.5903
24.2883
26.1051
27.6839
28.8093
29.4269
29.5968
29.3943
28.9401
28.2503
27.3327
26.1409
24.6186
22.7929
20.8711
19.1703
18.0665
17.8928
18.8684
20.98
23.9213
27.161
30.0717
32.1199
33.064
33.046
32.6406
32.5915
33.6394
36.2141
40.2013
44.862
48.9739
51.2074
50.6587
47.1907
41.6499
35.6543
31.1009
-0
-3e-006
-1e-005
-2.7e-005
-6.2e-005
-0.000115
-0.000185
-0.000267
-0.000355
-0.000442
2e-005
0.004387
0.009458
0.022877
0.038142
0.040749
0.023462
-0.012398
-0.048368
-0.061647
-0.027596
0.057425
0.177061
0.275799
0.273518
0.123705
-0.159553
-0.480386
-0.706943
-0.657466
-0.232585
0.526483
1.4447
2.258
2.75163
2.90989
2.95511
3.34115
4.61544
7.18276
11.0993
15.9668
20.9784
25.1425
27.6219
28.0284
26.5909
24.1011
21.6398
20.2192
20.5411
22.7569
26.4821
31.018
35.638
39.8433
43.4499
46.5984
49.5707
52.6461
55.9846
59.5985
63.381
67.2357
71.1563
75.2228
79.5972
84.385
89.565
94.9353
100.167
104.834
108.523
110.89
111.697
110.855
108.383
104.364
98.8738
92.0382
83.9787
74.8368
64.7734
54.037
42.9798
32.1266
22.1038
13.5592
7.06377
2.93445
1.13612
1.26249
2.6188
4.35713
5.74201
6.33387
6.05894
5.20083
4.19106
3.39932
3.04505
3.07267
3.18
3.01469
2.34283
1.17537
-0.220801
-1.39975
-1.9209
-1.46991
0.04908
2.49443
5.5342
8.77148
11.8531
14.5019
16.5491
17.8593
18.3758
18.0675
17.0423
15.5616
14.0302
12.9458
12.7512
13.7455
15.9151
18.9216
22.1474
24.8747
26.4732
26.6401
25.3981
23.1304
20.4486
17.9892
16.234
15.3891
15.3828
15.9133
16.5767
17.0308
17.1081
16.8151
16.3564
16.0681
16.2283
17.0281
18.4684
20.3596
22.3937
24.2106
25.4763
25.9593
25.5898
24.4345
22.7096
20.6645
18.57
16.7065
15.3062
14.5486
14.503
15.146
16.3117
17.7415
19.0805
19.9181
19.9711
19.0954
17.3696
15.1381
12.8607
11.0264
10.0015
9.93692
10.7084
11.9767
13.3028
14.3125
14.7797
14.7458
14.4125
14.0452
13.8829
14.0616
14.5498
15.2258
15.9908
16.8076
17.7509
18.9156
20.3629
21.9684
23.476
24.5517
24.9394
24.6222
23.8362
23.055
22.8136
23.518
25.2273
27.6382
30.2306
32.4982
34.2042
35.4374
36.65
38.4472
41.2919
45.2439
49.772
53.8238
56.1153
55.6461
52.1019
46.047
38.9442
32.7162
29.1019
28.9222
31.5286
34.8217
35.8797
32.0893
22.3914
8.19528
-6.47771
-15.8401
-14.045
2.77991
34.83
77.8991
124.083
163.789
188.339
192.464
175.85
143.155
102.596
63.466
33.5438
17.1083
14.2448
21.4153
33.1294
43.8781
49.7206
49.2001
43.1892
34.0873
24.6293
16.9429
11.9973
9.63349
8.94637
8.82452
8.49435
7.71329
6.79866
6.37892
7.02243
8.97528
12.0297
15.6104
18.9813
21.4734
22.7498
22.9062
22.4994
22.3395
23.218
25.6762
29.8041
35.2904
41.5217
47.7697
53.4317
58.1965
62.1194
65.5165
68.8122
72.361
76.3031
80.5858
85.0066
89.3338
93.4034
97.2188
100.918
104.658
108.416
111.878
114.396
115.105
113.114
107.765
98.8927
86.9556
73.0293
58.5373
45.0179
33.7132
25.3292
19.9266
16.9337
15.3678
14.1361
12.3352
9.49542
5.68145
1.34572
-2.8671
-6.356
-8.78495
-10.177
-10.8365
-11.1992
-11.5876
-12.082
-12.5109
-12.5446
-11.8893
-10.4654
-8.41537
-6.08111
-3.90242
-2.2276
-1.14557
-0.477109
0.135077
1.0166
2.32068
3.91619
5.41407
6.31305
6.20035
4.89131
2.56727
-0.231899
-2.73871
-4.20017
-4.0746
-2.21131
1.1611
5.46619
9.91164
13.7199
16.2951
17.3962
17.0956
15.7824
13.9699
12.1611
10.6991
9.73728
9.22312
8.95794
8.70437
8.30876
7.72005
7.00233
6.25964
5.61849
5.21816
5.1887
5.64928
6.66955
8.29632
10.4665
12.9946
15.5466
17.675
18.9788
19.2441
18.5601
17.2637
15.8317
14.778
14.3959
14.6938
15.3803
15.9743
16.0537
15.3839
14.0551
12.4679
11.1246
10.4749
10.7808
12.0497
14.0388
16.3637
18.6474
20.6234
22.2002
23.3984
24.2769
24.8662
25.1449
25.0993
24.7116
24.0562
23.3112
22.6869
22.3918
22.5319
23.037
23.668
24.1776
24.3572
24.1837
23.7821
23.3942
23.2973
23.6527
24.4104
25.3504
26.1767
26.6201
26.6437
26.4124
26.2481
26.5202
27.4401
28.99
30.8625
32.5347
33.5241
33.5488
32.7129
31.4984
30.6101
30.7917
32.5317
35.8656
40.2611
44.6583
47.7206
48.2301
45.5507
39.8745
32.2943
24.6153
18.733
15.9224
16.183
17.9138
18.2833
14.1838
3.65432
-12.8868
-32.0622
-47.9264
-53.4709
-42.8315
-13.5424
32.0385
86.7651
140.281
181.68
202.585
199.386
174.224
134.173
89.034
48.4476
19.4034
4.76744
3.2303
10.4843
21.0636
30.1813
34.9575
34.7202
30.5656
24.4746
18.3646
13.5246
10.4819
9.17012
9.27441
10.4316
12.4106
15.0566
18.2014
21.5357
24.636
27.0369
28.418
28.7509
28.3116
27.5787
27.127
27.4566
28.8912
31.5516
35.3042
39.8625
44.8434
49.8492
54.5699
58.7385
62.1763
64.8669
66.9905
68.8651
70.9144
73.5653
77.1656
81.8251
87.3659
93.3092
99.0445
103.963
107.626
109.863
110.76
110.572
109.558
107.823
105.186
101.242
95.5459
87.7777
77.9496
66.5044
54.2373
42.149
31.2456
22.3029
15.7667
11.6597
9.6831
9.31412
9.96806
11.0495
12.0544
12.5532
12.3036
11.2327
9.48381
7.36306
5.27024
3.64891
2.84017
3.01795
4.0941
5.77421
7.67542
9.41094
10.7537
11.6348
12.1526
12.5465
13.064
13.8801
15.0488
16.4383
17.826
18.9361
19.5295
19.4943
18.8921
18.0077
17.2656
17.1429
17.9906
19.8781
22.547
25.4535
27.8949
29.2329
29.131
27.6818
25.3763
22.9403
21.0416
20.0665
19.9859
20.3901
20.6694
20.2931
19.0132
17.0233
14.8859
13.3175
12.9014
13.8853
16.1263
19.1209
22.1561
24.5982
25.987
26.2091
25.4725
24.238
22.9946
22.1734
22.0699
22.7561
24.1306
25.8754
27.5614
28.7714
29.1596
28.5596
27.0459
24.9306
22.7055
20.8898
19.9214
19.9768
20.9063
22.3181
23.694
24.5642
24.6889
24.0752
22.9704
21.7106
20.5722
19.6196
18.7277
17.6743
16.2659
14.5325
12.7236
11.2859
10.6943
11.2162
12.7696
14.932
17.0109
18.3711
18.6518
17.9392
16.7197
15.7138
15.5977
16.6964
18.7835
21.1936
23.0119
23.4332
22.116
19.381
16.0441
13.2183
11.8735
12.5423
15.1072
18.8379
22.6734
25.6141
27.0828
27.0906
26.2084
25.3256
25.3322
26.8455
30.0203
34.5499
39.8355
45.197
49.9765
53.5988
55.5777
55.5436
53.3209
49.1025
43.5397
37.6951
32.7964
29.7685
28.6623
28.372
26.7813
21.5211
11.114
-3.91031
-20.4855
-33.2732
-36.0741
-23.7926
5.54156
49.4723
101.136
150.732
188.051
205.318
199.331
172.303
131.099
85.1487
43.7943
13.8923
-1.66195
-3.99574
2.80868
13.4467
23.1225
28.771
29.5011
26.2016
20.8101
15.3499
11.2951
9.26341
9.09979
10.2131
11.8781
13.5058
14.7938
15.7512
16.5553
17.464
18.6867
20.3426
22.4308
24.8926
27.5921
30.3364
32.9617
35.3852
37.6479
39.9409
42.5345
45.7502
49.8543
54.9803
60.9409
67.3357
73.5312
78.8754
82.8722
85.3834
86.6707
87.3189
88.1083
89.8126
92.9587
97.7019
103.742
110.388
116.731
121.799
124.712
124.856
122.039
116.497
108.826
99.8527
90.4696
81.3754
72.9713
65.2591
57.9268
50.5524
42.8729
34.9218
27.1751
20.3693
15.2914
12.5456
12.2902
14.1611
17.3487
20.8685
23.8474
25.7571
26.498
26.2652
25.4311
24.3274
23.1366
21.8922
20.4682
18.7903
16.9274
15.1492
13.8376
13.4129
14.1356
16.0625
18.9612
22.4055
25.8516
28.726
30.6169
31.3327
30.9084
29.6078
27.8206
25.9376
24.3191
23.1995
22.6177
22.4663
22.5216
22.5721
22.4526
22.0753
21.5007
20.9017
20.5171
20.5616
21.1252
22.1414
23.4493
24.7794
25.866
26.5238
26.6416
26.2867
25.6564
25.0044
24.4956
24.1909
24.0209
23.8117
23.3807
22.5946
21.4491
20.0964
18.8193
17.9234
17.5666
17.7372
18.2156
18.676
18.8499
18.5812
17.9568
17.3205
17.0968
17.6373
19.0226
20.9578
22.8584
24.0501
23.992
22.5258
19.9674
17.0218
14.6106
13.535
14.2222
16.5576
19.9576
23.5499
26.4192
27.8419
27.4932
25.4608
22.2182
18.4234
14.7281
11.6488
9.49621
8.34814
8.05977
8.40986
9.11871
9.9574
10.7905
11.5925
12.3714
13.1774
14.0603
15.0086
15.9888
16.9937
18.0033
19.0707
20.2931
21.7728
23.5641
25.5553
27.4947
29.0749
30.0424
30.2596
29.8862
29.3808
29.4507
30.845
34.1277
39.4821
46.5457
54.44
61.8964
67.4455
69.7708
68.116
62.5661
54.178
44.8326
36.7594
31.8846
31.0958
33.687
37.32
38.6989
34.7483
24.0894
8.09662
-8.90148
-20.4875
-20.0629
-3.13564
30.6998
76.9558
126.985
170.118
196.653
200.636
181.546
144.377
98.0572
52.776
17.1174
-3.9578
-10.0011
-4.3851
7.37235
19.6108
28.203
31.3078
29.3163
24.101
17.9429
12.6278
9.05421
7.21563
6.63739
6.74007
7.1341
7.77304
8.85914
10.7106
13.5743
17.4166
21.9464
26.671
31.0093
34.4406
36.5875
37.3437
36.8853
35.6925
34.4443
33.8166
34.3316
36.2461
39.5144
43.8223
48.704
53.6987
58.4659
62.8963
67.0143
70.9526
74.8435
78.7154
82.522
86.1268
89.4252
92.3964
95.1174
97.755
100.412
103.037
105.294
106.574
106.126
103.233
97.4015
88.5233
77.0141
63.7686
49.9536
36.7751
25.2558
16.0457
9.4238
5.29926
3.31031
2.97075
3.7894
5.34984
7.30197
9.29666
11.0353
12.2385
12.7221
12.4429
11.5175
10.2387
-0
-6e-006
-3e-005
-9.4e-005
-0.000218
-0.000419
-0.000696
-0.00103
-0.001374
-0.001656
-0.000943
0.008361
0.037373
0.093617
0.148315
0.17289
0.119287
-0.011906
-0.201392
-0.382285
-0.452402
-0.31742
0.076007
0.622755
1.12794
1.30486
0.920723
-0.086513
-1.49121
-2.83795
-3.46747
-2.70712
-0.122525
4.31913
10.1844
16.6106
22.5655
27.0617
29.4581
29.5934
27.8338
24.9582
21.9264
19.6077
18.5601
18.9176
20.4217
22.5155
24.5473
25.9693
26.4783
26.0671
24.9953
23.6467
22.3921
21.5125
21.1186
21.1305
21.3484
21.5287
21.503
21.2589
20.932
20.7666
21.02
21.8672
23.3094
25.1702
27.0955
28.6738
29.5548
29.5711
28.8893
27.8226
26.8356
26.3156
26.5039
27.3951
28.7279
30.0403
30.8479
30.8261
29.8636
28.0936
25.8595
23.5833
21.7282
20.629
20.4678
21.2343
22.7911
24.9117
27.3581
29.8463
32.1012
33.8558
34.9606
35.2917
34.8194
33.6434
31.9858
30.1593
28.5453
27.4692
27.1248
27.575
28.7068
30.2706
31.9424
33.4286
34.6097
35.6041
36.7664
38.5663
41.4221
45.5211
50.6556
56.0845
60.6184
62.8664
61.6754
56.5915
48.2548
38.3124
29.0817
22.7752
20.663
22.387
25.7264
27.2272
23.4695
12.6789
-4.05792
-22.3858
-35.5758
-36.4247
-19.7297
15.5462
65.2038
120.408
169.846
202.878
212.577
197.664
162.748
116.82
70.5737
33.2997
10.5924
3.40316
8.57671
20.5009
33.2352
42.2541
45.374
42.8055
36.3882
28.5795
21.5223
16.4656
13.7142
12.8682
13.2142
14.0657
14.9145
15.5499
16.0674
16.7285
17.8202
19.5324
21.9147
24.8272
27.966
30.9403
33.3698
35.0726
36.1432
37.001
38.2166
40.3353
43.7064
48.3855
54.0726
60.1804
66.006
70.9173
74.5896
77.0638
78.7105
80.1313
81.9463
84.6415
88.4124
93.112
98.2575
103.254
107.535
110.685
112.497
112.957
112.128
110.042
106.612
101.617
94.7866
85.9715
75.295
63.2262
50.6041
38.4672
27.8154
19.4428
13.7383
10.6295
9.63431
9.99943
10.9276
11.7761
12.0963
11.729
10.8034
9.65059
8.63802
8.08927
8.09842
8.52855
9.04156
9.20893
8.66859
7.30417
5.33445
3.31787
1.99354
1.98532
3.58778
6.59775
10.3869
14.0676
16.7789
18.004
17.7327
16.4368
14.9299
13.9665
13.9517
14.8357
16.1988
17.4267
18.0004
17.733
16.8132
15.7434
15.0343
14.9645
15.4578
16.1519
16.5935
16.4481
15.6749
14.6053
13.7464
13.6256
14.523
16.314
18.506
20.4211
21.4496
21.2857
20.0077
18.0431
16.063
14.7344
14.4636
15.281
16.8812
18.7018
20.1981
20.9983
21.0458
20.6068
20.1124
19.9908
20.4779
21.5251
22.7285
23.5581
23.549
22.5457
20.7632
18.7586
17.2564
16.8769
17.9463
20.2926
23.3144
26.1607
28.0445
28.4882
27.4683
25.3664
22.8102
20.4647
18.7992
18.0017
17.9438
18.3307
18.8946
19.4846
20.089
20.8018
21.7265
22.9065
24.261
25.5524
26.4614
26.6963
26.1343
24.8434
23.0862
21.2531
19.8378
19.2425
19.6446
20.9152
22.7564
24.714
26.4247
27.7218
28.7052
29.6752
30.9534
32.7015
34.8107
36.9082
38.4117
38.8604
38.1916
36.8933
35.9129
36.3685
39.1948
44.644
52.0325
59.7174
65.4717
67.185
63.6412
55.0966
43.3929
31.4599
22.3795
18.1872
18.9295
22.4184
24.8897
22.4304
12.8521
-2.91144
-20.4211
-32.7156
-32.4143
-14.3645
22.1536
72.4413
127.185
174.885
205.144
211.676
194.024
157.555
111.658
66.868
31.8339
11.1822
4.93237
9.29661
18.6259
27.5308
32.4468
32.3447
28.3666
22.8278
18.0566
15.5071
15.4063
16.9589
18.9438
20.3281
20.6061
19.8907
18.8043
18.0612
18.1992
19.4004
21.4066
23.6995
25.7713
27.3333
28.3908
29.2342
30.3396
32.219
35.1776
39.2583
44.1867
49.3911
54.2594
58.245
61.0556
62.736
63.643
64.3978
65.7624
68.4195
72.752
78.7365
85.94
93.6258
100.868
106.823
110.91
112.984
113.352
112.562
111.222
109.761
108.266
106.526
104.021
100.178
94.5501
87.019
77.8348
67.5484
56.9045
46.6279
37.3267
29.4634
23.2063
18.4919
15.1029
12.7088
10.945
9.52927
8.2687
7.13386
6.22224
5.73491
5.85107
6.61067
7.89272
9.45586
10.9648
12.1732
12.9808
13.4339
13.7489
14.1093
14.6245
15.214
15.6204
15.5528
14.8296
13.5253
11.9221
10.4864
9.69477
9.875
11.0213
12.8223
14.7209
16.1269
16.6575
16.2272
15.0483
13.5949
12.4073
11.9813
12.5822
14.1701
16.4488
18.9853
21.2876
22.9408
23.6879
23.4438
22.347
20.7506
19.0594
17.6628
16.8557
16.7657
17.3469
18.3753
19.4928
20.368
20.7515
20.5358
19.7771
18.6475
17.3771
16.1965
15.2828
14.7175
14.467
14.3812
14.2894
14.048
13.5985
12.9863
12.3945
12.1208
12.4993
13.7796
15.9687
18.8065
21.8021
24.3713
25.962
26.2628
25.3055
23.4716
21.3998
19.8082
19.2097
19.7535
21.2142
23.0784
24.7353
25.6372
25.5465
24.6006
23.2454
22.0716
21.588
22.0216
23.2469
24.8487
26.2949
27.1237
27.1519
26.5579
25.8404
25.5972
26.2622
27.9492
30.3916
33.0233
35.1651
36.3328
36.3931
35.6414
34.7321
34.4289
35.3272
37.6449
41.1835
45.4382
49.7701
53.5974
56.486
58.1629
58.4858
57.3611
54.7797
50.9725
46.4855
42.1823
38.9978
37.462
37.2782
37.0837
34.7356
28.1051
16.2171
0.2189
-16.1929
-27.3655
-27.2406
-11.5053
20.5165
64.8992
113.577
156.253
183.219
188.177
170.1
133.54
87.1981
41.3355
4.90282
-16.6924
-22.6345
-16.0949
-2.70846
11.5112
21.9528
26.4153
25.0993
19.9322
13.4657
7.95531
4.78762
4.29536
5.97779
8.94783
12.2635
15.1803
17.3316
18.6906
19.5125
20.1804
21.0981
22.5751
24.7058
27.4053
30.4497
33.5543
36.5202
39.3293
42.0867
45.0153
48.3271
52.1022
56.2186
60.4071
64.3826
67.946
71.1308
74.1444
77.2948
80.8909
85.113
89.902
95.0214
100.168
105.089
109.667
113.88
117.73
121.174
124.089
126.083
126.733
125.607
122.394
117.002
109.567
100.389
89.8841
78.5294
66.8553
55.4065
44.73
35.2988
27.4942
21.5125
17.2814
14.52
12.7469
11.4836
10.3316
9.10962
7.8377
6.69928
5.85035
5.40492
5.35531
5.5658
5.887
6.14007
6.27149
6.33417
6.45751
6.77438
7.32422
8.08953
8.96385
9.83526
10.5594
11.0289
11.2003
11.1506
10.9545
10.6934
10.4287
10.2006
9.98905
9.75562
9.46541
9.09088
8.73956
8.53703
8.6529
9.19106
10.1624
11.4419
12.8203
14.0178
14.7863
15.0224
14.8154
14.3737
13.9677
13.7856
13.8488
14.0154
14.0273
13.6676
12.8406
11.6349
10.3488
9.40792
9.16352
9.81065
11.2731
13.2495
15.3379
17.1452
18.4036
18.9904
18.9948
18.6394
18.1623
17.7989
17.6547
17.7363
18.0232
18.4895
19.1128
19.8723
20.7458
21.6962
22.6309
23.393
23.7711
23.6075
22.8174
21.4901
19.8704
18.2914
17.1561
16.7944
17.3896
18.8605
20.9349
23.188
25.2027
26.669
27.4483
27.6046
27.3217
26.8024
26.2103
25.6088
24.9962
24.3966
23.9395
23.8956
24.5888
26.2368
28.8366
32.1057
35.4429
38.0956
39.3996
39.0443
37.25
34.7678
32.7096
32.2185
34.1149
38.6636
45.419
53.3408
60.9748
66.7415
69.3521
68.1062
63.1134
55.3343
46.4551
38.5186
33.3391
31.85
33.5691
36.5021
37.5941
33.7803
23.2822
6.80818
-11.9595
-26.9371
-31.2404
-19.4763
10.1243
54.4479
105.721
153.287
186.469
197.675
184.6
150.856
104.89
57.4204
18.3018
-6.05267
-13.9818
-8.3724
4.9187
19.2658
29.3869
32.6732
29.3227
21.6577
12.8229
5.5958
1.58724
0.987175
2.89836
5.92155
8.74211
10.5823
11.2887
11.2512
11.144
11.5979
13.0556
15.7063
19.4375
23.9405
28.8009
33.6277
38.0781
41.8981
44.9485
47.2009
48.7887
49.9722
51.1158
52.692
55.1137
58.7027
63.5557
69.5097
76.1538
82.964
89.447
95.2848
100.41
104.972
109.243
113.422
117.54
121.388
124.56
126.519
126.857
125.308
121.82
116.51
109.593
101.347
92.0532
82.0326
71.6699
61.3951
51.7435
43.2137
36.1542
30.6485
26.4973
23.2867
20.5075
17.6992
14.6447
11.4461
8.43039
6.08634
4.81445
4.75991
5.77776
7.48044
9.4067
11.1143
12.3226
12.9666
13.1408
12.9971
12.6741
12.2391
11.6511
10.9195
10.0915
9.30285
8.75253
8.67502
9.25533
10.5971
12.7215
15.4871
18.6513
21.8842
24.8316
27.1014
28.3554
28.3
26.8754
24.2788
20.967
17.632
15.0424
13.8464
14.4224
16.7023
20.1997
24.0765
27.4566
29.6713
30.3799
29.6719
27.9913
25.9642
24.1985
23.0273
22.4805
22.3501
22.2573
21.8597
20.9517
19.5392
17.876
16.3154
15.2908
15.1372
15.9642
17.664
19.8941
22.1381
23.8778
24.6706
24.2388
22.6496
20.268
17.6678
15.4946
14.2872
14.3453
15.635
17.8165
20.3169
22.4813
23.7801
23.9472
23.0146
21.2646
19.1704
17.2641
15.9897
15.5736
15.9786
16.924
17.9461
18.6043
18.5467
17.6911
16.2404
14.6868
13.7188
13.9221
15.5889
18.5989
22.457
26.4016
29.6621
31.7387
32.568
32.5386
32.3616
32.7189
34.0056
36.1594
38.6996
40.9641
42.4015
42.84
42.6536
42.6459
43.7236
46.5493
51.2027
56.9932
62.5935
66.439
67.2625
64.5882
59.0107
52.0833
45.8556
42.003
0
-0
-4e-006
-1.8e-005
-5.2e-005
-0.000112
-0.000201
-0.000313
-0.000438
-0.000563
-0.000667
-0.000273
0.005051
0.022729
0.049055
0.063896
0.057702
0.016113
-0.049701
-0.102878
-0.121059
-0.064424
0.070869
0.261913
0.424035
0.450419
0.268087
-0.097295
-0.556949
-0.92231
-0.994959
-0.620323
0.250663
1.53417
3.04393
4.54446
5.89956
7.07773
8.20978
9.53165
11.2965
13.6815
16.6992
20.2028
23.9124
27.5153
30.7947
33.6501
36.1714
38.5693
41.11
43.9707
47.2113
50.7563
54.4431
58.0722
61.533
64.845
68.1347
71.6202
75.484
79.7998
84.5098
89.4397
94.3341
98.9354
103.133
106.954
110.572
114.218
117.987
121.751
125.084
127.307
127.615
125.288
119.927
111.623
100.955
88.9342
76.7022
65.3211
55.5449
47.6484
41.4708
36.4936
32.1309
27.8802
23.5142
19.1034
14.9282
11.3613
8.69135
7.03725
6.245
5.97674
5.8649
5.58217
4.99806
4.17958
3.37556
2.87164
2.92923
3.65966
4.9809
6.6116
8.18286
9.36565
10.0071
10.1647
10.069
10.0674
10.4789
11.475
13.0065
14.7553
16.2973
17.237
17.3467
16.6804
15.5205
14.2966
13.4166
13.1103
13.3811
14.0067
14.6765
15.1244
15.3013
15.3878
15.6546
16.3663
17.6414
19.3608
21.1821
22.6474
23.3866
23.2546
22.3845
21.0945
19.7745
18.7159
18.0314
17.6295
17.2605
16.659
15.6744
14.3817
13.0552
12.0603
11.7428
12.2497
13.5359
15.3623
17.3625
19.1744
20.5369
21.3274
21.6245
21.5411
21.1613
20.53
19.6409
18.4578
16.9968
15.3246
13.5937
12.0253
10.8409
10.2265
10.2236
10.7931
11.837
13.2102
14.8074
16.5312
18.2752
19.9228
21.3194
22.271
22.5961
22.1795
21.0543
19.4813
17.8519
16.6413
16.2687
17.0139
18.9093
21.704
24.9297
27.986
30.3693
31.7699
32.1916
31.9806
31.7342
32.201
34.0334
37.5364
42.5325
48.2093
53.2987
56.3955
56.3234
52.6534
45.9924
37.985
30.8865
26.7877
26.759
30.211
34.8002
37.0814
33.7769
23.3154
7.03738
-10.5248
-22.5246
-21.8086
-3.44768
33.1442
83.2461
137.495
184.231
212.663
216.033
193.68
151.185
98.7288
48.0717
9.23834
-12.0159
-15.2428
-4.68111
12.69
29.6233
40.8003
43.9581
39.9095
31.5206
22.2564
14.9397
10.9997
10.3463
11.8599
14.1285
16.0749
17.3034
18.0468
18.8917
20.3636
22.6337
25.4636
28.2512
30.3519
31.3226
31.2065
30.5242
30.0743
30.7048
33.0614
37.295
43.0897
49.7025
56.2451
61.9684
66.468
69.8331
72.5301
75.2176
78.5155
82.7878
88.0506
94.0434
100.289
106.283
111.665
116.276
120.153
123.337
125.804
127.419
127.944
127.118
124.711
120.623
114.925
107.816
99.5649
90.4607
80.7415
70.6504
60.4976
50.6211
41.351
33.0401
25.9777
20.3373
16.166
13.3689
11.7771
11.1817
11.3785
12.1512
13.2601
14.4525
15.5104
16.3116
16.8058
17.0538
17.2433
17.5229
18.0081
18.6361
19.2164
19.4599
19.1442
18.2499
17.0498
16.0124
15.7112
16.616
18.8974
22.3015
26.1745
29.5929
31.6251
31.664
29.589
25.7899
21.1189
16.65
13.4095
12.082
12.8413
15.343
18.8426
22.4733
25.4258
27.1813
27.5514
26.715
25.1035
23.2125
21.4246
19.9898
19.0183
18.5089
18.393
18.539
18.791
18.9761
18.9183
18.4711
17.5451
16.1742
14.5596
13.0367
11.949
11.5554
11.9844
13.1158
14.7194
16.4287
17.9052
18.8602
19.1838
18.9281
18.3088
17.5653
16.945
16.6367
16.7267
17.1387
17.6672
18.0457
18.067
17.6649
16.94
16.1422
15.6225
15.6623
16.4364
17.8704
19.6953
21.5327
23.0668
24.1987
25.0891
26.0999
27.669
30.1468
33.6058
37.6991
41.6128
44.2544
44.5601
41.9289
36.5225
29.2906
21.8058
15.7227
12.1327
10.988
10.9205
9.61049
4.80666
-4.44918
-16.8673
-28.7257
-34.5406
-28.7511
-7.71312
28.5093
75.3882
124.66
166.291
191.273
194.237
174.961
138.417
93.2856
49.4012
15.0126
-5.19283
-10.8464
-5.16609
6.6248
19.1993
28.702
33.4904
33.9808
31.9188
29.3257
27.6574
27.4121
28.2424
29.3339
29.9099
29.5634
28.4014
26.9906
26.097
26.4153
28.278
31.5213
35.58
39.7033
43.2311
45.7432
47.2632
48.222
49.3089
51.2304
54.4075
58.7994
63.9475
69.113
73.5956
76.91
78.9714
80.1329
81.0107
82.314
84.5062
87.7907
92.0593
97.0311
102.444
108.119
113.984
120.004
126.045
131.707
136.324
138.978
138.769
135.069
127.654
116.823
103.32
88.2258
72.7402
58.0109
44.9578
34.2091
26.0528
20.5101
17.3009
15.9169
15.6943
15.9438
16.0892
15.7626
14.8864
13.6125
12.2687
11.2378
10.8077
11.044
11.8205
12.8931
13.9771
14.9051
15.6394
16.2313
16.8508
17.6087
18.5739
19.6973
20.8177
21.7994
22.531
23.0105
23.2603
23.3253
23.267
23.1082
22.8465
22.4724
21.9559
21.2915
20.5347
19.7647
19.1022
18.6288
18.4667
18.745
19.5307
20.8213
22.5084
24.3756
26.166
27.5827
28.3651
28.3576
27.4857
25.8612
23.6612
21.1245
18.5469
16.2083
14.4067
13.3801
13.2671
14.0721
15.6271
17.6436
19.7532
21.5683
22.8252
23.4588
23.5943
23.5004
23.4432
23.549
23.8244
24.0454
23.9651
23.3691
22.1825
20.5741
18.8787
17.4841
16.6802
16.5455
16.9613
17.6472
18.302
18.7382
18.9136
18.9885
19.2384
19.9219
21.1762
22.8955
24.8234
26.6007
27.8877
28.4935
28.4719
28.0996
27.8984
28.4564
30.2659
33.534
38.0596
43.2569
48.1552
51.5751
52.495
50.3904
45.5299
39.0326
32.6127
28.0047
26.3018
27.3206
29.4149
29.7432
25.3015
14.2615
-2.83328
-22.491
-38.7433
-44.6754
-34.5052
-5.82018
39.1635
93.5651
147.358
189.967
213.096
212.972
191.207
154.079
110.553
69.6974
38.317
19.5695
12.8166
14.6462
20.4531
26.0759
28.8551
27.98
24.2154
19.1947
14.6182
11.691
10.8757
12.0094
14.5482
17.7865
21.1138
24.0839
26.452
28.2042
29.4494
30.3226
30.95
31.4425
31.9005
32.4073
33.0599
33.9239
35.0967
36.6325
38.5495
40.7706
43.1369
45.5117
47.855
50.3285
53.2348
56.9487
61.8103
67.9334
75.1173
82.8251
90.2857
96.7245
101.588
104.726
106.421
107.333
108.246
109.838
112.39
115.631
118.747
120.585
119.965
116.021
108.448
97.596
84.432
70.3398
56.7792
44.9855
35.6284
28.8886
24.4403
21.6063
19.5915
17.715
15.5518
13.0395
10.4079
8.09378
6.56521
6.17401
7.05746
9.0545
11.732
14.4812
16.6658
17.8339
17.8254
16.8175
15.2176
13.612
12.5291
12.3472
13.1312
14.7124
16.7708
18.9397
20.9191
22.4882
23.5367
24.0157
23.9375
23.4
22.5119
21.5196
20.6808
20.2477
20.3667
20.9935
21.8938
22.7177
23.1778
23.1324
22.6917
22.1378
21.8176
21.9819
22.6923
23.7466
24.7145
25.1834
24.925
24.0022
22.7406
21.6046
21.0166
21.1556
21.9037
22.8693
23.5647
23.6607
23.1404
22.2984
21.5968
21.4916
22.1687
23.4895
25.0456
26.2602
26.6133
25.9302
24.4348
22.6492
21.1883
20.5548
20.9719
22.2873
24.071
25.7096
26.6999
26.8219
26.183
25.2195
24.4307
24.276
24.9458
26.3037
27.9727
29.4579
30.347
30.4867
29.9974
29.2257
28.5667
28.283
28.3895
28.6866
28.9059
28.8414
28.4946
28.1407
28.2942
29.4692
31.9402
35.5973
39.9529
44.2914
47.9783
50.6086
52.1478
52.953
53.5422
54.2765
55.0813
55.4045
54.4272
51.5379
46.7741
40.9072
35.3865
31.7993
31.1743
33.2327
36.1268
36.8725
32.4289
21.0871
3.7096
-15.8784
-31.5003
-36.2773
-24.9043
4.28006
48.1422
99.0875
146.859
181.302
195.225
186.369
157.917
117.448
74.5249
37.9517
13.5022
2.78578
3.53982
10.9928
19.8005
25.752
26.7598
22.9974
16.2952
9.12226
3.6139
1.01023
1.52938
4.60697
9.31156
14.6866
19.9258
24.5031
28.1365
30.6936
32.1936
32.7438
32.545
31.9614
31.4616
31.4284
32.1302
33.6277
35.876
38.7105
41.9737
45.5431
49.3569
53.4088
57.6824
62.12
66.5416
70.7484
74.5604
77.9131
80.8817
83.6453
86.4064
89.3556
92.5948
96.0751
99.6263
103.032
106.077
108.554
110.271
110.969
110.373
108.154
104.019
97.8062
89.5931
79.7403
68.8763
57.7588
47.1204
37.4909
29.1494
22.1325
16.3357
11.6558
8.07552
5.68701
4.62471
4.9173
6.38372
8.61107
10.9825
12.8807
13.8877
13.9045
13.1983
12.2983
11.8767
12.4468
14.2416
17.0536
20.3216
23.2936
25.2243
25.642
24.4566
22.0001
18.9401
16.1008
14.1873
13.5885
14.3024
15.9791
18.0622
19.989
21.3553
22.0024
22.0361
21.7208
21.3454
21.0581
20.8991
20.8648
20.919
21.0793
21.4355
22.1076
23.1632
24.547
26.0887
27.5001
28.5016
28.9184
28.7533
28.1406
27.2628
26.247
25.1
23.7841
22.2519
20.5931
19.0684
18.102
18.1517
19.4929
22.0311
25.2738
28.4846
30.8975
32.0024
31.6617
30.204
28.2801
26.5492
25.463
25.1037
25.1377
25.0543
24.4024
23.0144
21.068
19.0853
17.7371
17.575
18.8075
21.2073
24.145
26.8337
28.6085
29.152
28.5312
27.1527
25.6578
24.5922
24.2136
24.4038
24.7409
24.692
23.8475
22.1055
19.7754
17.4897
16.0097
15.9822
17.6988
20.9525
25.0779
29.1309
32.1591
33.4762
32.8558
30.557
27.2717
23.9163
1e-006
1.3e-005
3.4e-005
3.9e-005
-3.9e-005
-0.000323
-0.000979
-0.002165
-0.003945
-0.006226
-0.010871
-0.030795
-0.04219
0.006238
0.179524
0.510961
0.94116
1.26195
1.1557
0.392955
-1.01565
-2.68362
-3.86195
-3.64754
-1.42093
2.68164
7.45904
10.7541
10.208
4.32382
-6.49447
-19.3633
-29.1811
-29.9005
-16.4845
13.0857
56.4865
107.059
155.241
191.067
207.001
200.117
172.951
132.632
88.7174
50.4034
24.0475
11.8478
11.8883
19.4752
29.0508
36.0348
38.0119
34.9625
28.6147
21.419
15.5152
12.1074
11.3582
12.6754
15.1794
18.1148
21.0767
24.0072
27.0268
30.2434
33.5858
36.7725
39.4062
41.1662
41.9247
41.838
41.3175
40.9232
41.2263
42.6341
45.2907
48.9575
53.1978
57.4921
61.4139
64.7641
67.6322
70.3503
73.362
77.0076
81.3744
86.2704
91.2843
95.9333
99.8166
102.719
104.736
106.191
107.512
109.04
110.855
112.75
114.236
114.692
113.493
110.182
104.571
96.8159
87.3414
76.7584
65.7371
54.913
44.8143
35.8233
28.1992
22.0664
17.4269
14.2174
12.2943
11.4656
11.4559
11.9406
12.6501
13.3473
13.8985
14.3018
14.6429
15.0573
15.6191
16.2806
16.927
17.372
17.53
17.4381
17.33
17.5676
18.4992
20.3181
22.9682
26.0533
28.9044
30.8056
31.2121
29.9953
27.5101
24.476
21.8157
20.3933
20.7086
22.7219
25.8481
29.1514
31.6492
32.6231
31.8298
29.5829
26.6138
23.9135
22.36
22.4742
24.2176
27.0775
30.1745
32.5856
33.6662
33.2298
31.6059
29.5179
27.8021
27.0874
27.5545
28.8399
30.2187
30.8757
30.2274
28.1602
25.0712
21.8063
19.3291
18.3921
19.2865
21.7909
25.287
28.9568
32.0744
34.184
35.1496
35.1096
34.3762
33.2411
31.8523
30.2843
28.5892
26.9227
25.5592
24.7982
24.8802
25.8805
27.6172
29.6892
31.5375
32.6343
32.6652
31.6149
29.7328
27.4109
25.0677
23.0707
21.604
20.7579
20.469
20.6673
21.276
22.2664
23.5838
25.1604
26.8638
28.51
29.8903
30.8054
31.113
30.7116
29.6006
27.9409
25.9799
24.0511
22.5172
21.7212
21.8867
23.0248
24.896
27.0599
29.0222
30.355
30.8543
30.5952
29.8836
29.1492
28.8501
29.2605
30.3892
32.0291
33.8523
35.5801
37.0747
38.3465
39.5745
40.9933
42.8105
45.0617
47.4921
49.5544
50.5385
49.8115
47.0378
42.405
36.7359
31.297
27.3646
25.7012
25.9548
26.5032
24.8151
18.4028
6.02773
-11.1759
-29.2981
-42.1979
-43.116
-26.8879
8.02089
58.2488
115.804
169.901
209.695
227.249
219.755
190.241
146.549
98.9237
57.1815
28.1388
14.2626
13.7669
21.8967
32.8649
41.723
45.6081
44.0832
38.5941
31.4464
24.8168
20.0589
17.5356
16.803
17.034
17.5175
17.8603
18.1278
18.6222
19.6954
21.4944
23.8929
26.5825
29.1816
31.4025
33.164
34.6296
36.0903
37.8805
40.1713
42.9342
45.9582
48.9861
51.892
54.7324
57.7448
61.2966
65.6932
70.9819
76.9092
82.9057
88.2682
92.42
95.0938
96.4209
96.911
97.3214
98.4346
100.764
104.381
108.846
113.299
116.677
117.944
116.313
111.459
103.565
93.2656
81.488
69.2016
57.2636
46.272
36.5685
28.3
21.4921
16.2124
12.535
10.5729
10.3644
11.7753
14.4166
17.6688
20.8278
23.2758
24.5709
24.5651
23.4752
21.7232
19.8288
18.2028
17.0814
16.4555
16.1742
16.0997
16.1234
16.2205
16.4805
17.0271
17.9344
19.156
20.4885
21.7096
22.6565
23.2569
23.5868
23.7943
24.0236
24.3486
24.7017
24.9203
24.7326
23.9852
22.7116
21.1629
19.7065
18.7675
18.6478
19.4197
20.8877
22.6259
24.1186
24.8868
24.6533
23.4148
21.4085
19.043
16.7778
15.0217
14.0837
14.1001
15.032
16.6817
18.7476
20.8907
22.7458
23.9421
24.2456
23.5912
22.1038
20.0802
17.951
16.1941
15.2032
15.2414
16.298
18.0835
20.1403
21.9679
23.1417
23.4487
22.9521
21.9474
20.8906
20.2233
20.21
20.8515
21.881
22.9164
23.5612
23.5942
22.9734
21.8926
20.6725
19.6333
18.9486
18.6253
18.5398
18.5267
18.5154
18.5642
18.838
19.4983
20.5999
22.0072
23.3768
24.2536
24.2646
23.2803
21.515
19.4914
17.8294
17.05
17.3953
18.736
20.615
22.4032
23.5345
23.7621
23.1639
22.1273
21.1139
20.5487
20.6086
21.2239
22.1517
23.0788
23.8516
24.5571
25.4934
27.0206
29.4522
32.886
37.1403
41.8179
46.328
49.9818
52.0759
51.9884
49.3005
43.9298
36.4
27.8301
19.8247
14.0657
11.6748
12.5747
15.1819
16.6226
13.6678
4.08597
-12.0199
-31.3859
-47.9349
-54.2258
-43.7509
-13.4027
34.885
93.9711
153.003
200.173
225.936
225.68
200.921
158.667
109.169
62.9858
28.1906
8.6699
3.81779
9.60701
20.3934
30.8981
37.6141
39.339
36.8633
32.0904
27.1406
23.591
22.1711
22.7929
24.8392
27.5524
30.2635
32.5732
34.3262
35.5197
36.2617
36.678
36.9011
37.0384
37.2551
37.736
38.7323
40.5012
43.2731
47.1632
52.1
57.8018
63.8162
69.5933
74.6034
78.5136
81.289
83.148
84.5459
85.9943
87.8562
90.3251
93.3915
96.8578
100.441
103.942
107.285
110.529
113.742
116.899
119.801
122.039
123.112
122.542
119.953
115.189
108.355
99.7509
89.7511
78.6921
66.9167
54.8113
42.8092
31.4738
21.4892
13.5565
8.22585
5.72802
5.86088
7.94864
11.0087
13.9634
15.9329
16.3818
15.2126
12.7814
9.77663
7.01457
5.24465
4.96684
6.37028
9.27728
13.263
17.723
22.0069
25.6047
28.2815
30.0599
31.1743
31.9562
32.6181
33.249
33.7399
33.8955
33.5586
32.7756
31.7772
30.9676
30.7221
31.2127
32.3182
33.6235
34.6386
34.9642
34.4788
33.4192
32.2816
31.6367
31.8542
32.916
34.4369
35.8698
36.651
36.4305
35.2179
33.3339
31.2571
29.4758
28.2608
27.6532
27.5444
27.7872
28.3095
29.0499
29.9587
30.9216
31.701
32.0093
31.5696
30.2294
28.1225
25.631
23.3406
21.8108
21.4004
22.1494
23.8043
25.8787
27.8061
29.1262
29.5434
29.0604
27.8951
26.4062
24.9818
23.9653
23.5436
23.7736
24.5195
25.4898
26.3364
26.7387
26.5417
25.7541
24.5864
23.3957
22.5301
22.2464
22.5588
23.2416
23.9252
24.2446
23.9828
23.1618
22.0009
20.8442
20.0169
19.748
19.973
20.4046
20.6618
20.4431
19.6365
18.3745
17.0448
16.1146
16.0375
17.0904
19.2321
22.0985
25.1049
27.6483
29.3104
29.8968
29.6079
28.883
28.3138
28.4554
29.693
32.1435
35.6348
39.8283
44.2969
48.5949
52.2035
54.5611
55.041
53.1662
48.7957
42.3855
35.008
28.2467
23.6532
21.9999
22.6822
23.5682
21.5417
13.6951
-1.14644
-21.2306
-41.5396
-54.6916
-53.01
-31.151
11.5632
70.1059
134.506
192.24
231.549
244.747
230.365
193.411
143.665
92.7209
50.7114
23.7465
12.9643
15.1162
24.3667
34.559
41.1343
42.0773
37.9234
30.7439
23.0473
16.7766
12.8303
11.0877
10.8879
11.4606
12.2991
13.2867
14.542
16.2667
18.4649
20.9589
23.4402
25.6105
27.3577
28.8185
30.236
31.9445
34.2352
37.2233
40.8118
44.7463
48.7305
52.4832
55.8513
58.802
61.3853
63.7514
66.1113
68.6657
71.5653
74.9117
78.7938
83.2315
88.2113
93.5969
99.1918
104.75
109.975
114.564
118.225
120.665
121.626
120.927
118.414
113.983
107.613
99.3894
89.5962
78.6781
67.1878
55.7536
45.0042
35.4678
27.5036
21.1902
16.3973
12.8358
10.1554
8.04598
6.27499
4.76183
3.5858
2.85067
2.66442
3.03465
3.82352
4.83571
5.86671
6.76816
7.46875
8.01707
8.56206
9.25484
10.1695
11.267
12.4303
13.5047
14.4173
15.1636
15.8075
16.465
17.2375
18.1034
18.9623
19.579
19.7333
19.3476
18.5182
17.5528
16.8584
16.7716
17.444
18.7996
20.4738
21.9635
22.7994
22.7553
21.933
20.7384
19.6987
19.2732
19.6787
20.8543
22.4413
23.8865
24.725
24.7195
23.967
22.8057
21.7195
21.1708
21.4663
22.6173
24.3752
26.2677
27.7267
28.2985
27.7398
26.0995
23.7165
21.1196
18.9289
17.6594
17.5582
18.5296
20.2062
22.0413
23.5361
24.3563
24.4411
24.0063
23.4371
23.1268
23.3307
24.0368
25.023
25.9581
26.5232
26.575
26.1856
25.592
25.1455
25.1457
25.6828
26.5795
27.4185
27.6753
26.9289
25.007
22.0595
18.5661
15.2452
12.8839
12.064
12.9476
15.2838
18.4513
21.6087
23.9116
24.7896
24.0951
22.1671
19.7273
17.6887
16.848
17.6765
20.2204
24.0481
28.427
32.5937
35.9147
38.1577
39.5148
40.4989
41.6187
43.1306
44.8302
45.9811
45.6179
42.9426
37.8167
30.9973
24.0652
18.7924
16.2823
16.2413
16.7028
14.4768
6.44753
-8.8128
-29.6712
-51.0031
-65.1049
-63.8207
-41.3461
3.27218
64.989
133.443
195.393
238.231
253.505
239.284
200.497
147.278
91.8471
45.1248
14.0347
0.322663
1.02758
10.352
21.9298
30.8349
34.6569
33.4716
28.9955
23.5175
18.928
16.168
15.2805
15.7995
17.0534
18.5569
20.0969
21.7011
23.4219
25.2664
27.2388
29.2982
31.4998
33.9326
36.7195
39.8849
43.3456
46.8609
50.0902
52.7486
54.7846
56.3912
57.9814
60.03
62.9545
66.912
71.7742
77.1464
82.4899
87.2606
91.1084
93.9569
96.0094
97.6694
99.4017
101.721
104.981
109.304
114.484
119.991
125.03
128.681
130.062
128.529
123.796
116.094
-1e-006
-1.5e-005
-5.1e-005
-0.000127
-0.000257
-0.000443
-0.000675
-0.000923
-0.001141
-0.001272
0.001136
0.022616
0.055673
0.096578
0.123553
0.103314
0.020765
-0.11285
-0.251112
-0.323792
-0.257156
-0.019363
0.362473
0.758875
0.964055
0.792498
0.160372
-0.840649
-1.90231
-2.56119
-2.30331
-0.721108
2.27764
6.40698
11.0473
15.4138
18.7273
20.4778
20.5891
19.4285
17.6868
16.1654
15.4908
15.94
17.394
19.4239
21.4727
23.0064
23.6736
23.4409
22.4887
21.0985
19.6009
18.2441
17.189
16.5756
16.489
17.0095
18.177
19.9527
22.148
24.4171
26.2562
27.1073
26.5333
24.3522
20.7881
16.4089
12.0654
8.68431
7.03302
7.52941
10.1127
14.2584
19.0741
23.5855
26.918
28.4876
28.1724
26.2479
23.3067
20.1187
17.3796
15.5692
14.8776
15.2625
16.4399
18.0521
19.7314
21.1609
22.1494
22.5834
22.4358
21.7594
20.7169
19.624
18.8836
18.8704
19.7838
21.6465
24.1634
26.7513
28.7047
29.4236
28.6107
26.4586
23.6128
20.9814
19.4791
19.729
21.8697
25.4998
29.83
33.9279
37.0514
38.8559
39.4495
39.2363
38.728
38.344
38.3472
38.8725
39.9905
41.863
44.7548
48.9843
54.5888
61.0751
67.3733
71.9901
73.4469
70.9044
64.5839
55.8678
46.9094
39.8477
35.8186
34.3389
33.2552
29.5988
21.0749
7.48825
-8.38787
-21.0609
-23.8261
-11.0389
19.4616
64.873
117.467
166.387
200.605
212.168
198.558
163.412
115.388
65.4634
23.7883
-3.05175
-13.3589
-9.96947
1.43088
14.5551
24.539
29.0917
28.5333
24.9322
20.8213
18.0652
17.3323
18.0834
19.1968
19.5874
18.6585
16.5467
13.977
11.9884
11.4923
13.0018
16.4961
21.4993
27.2252
32.825
37.5683
40.9706
42.9504
43.8225
44.2233
44.9411
46.6541
49.8004
54.3896
60.0424
66.0872
71.7649
76.4792
80.0084
82.5755
84.7306
87.1453
90.413
94.8405
100.344
106.514
112.66
118.096
122.293
125.009
126.284
126.314
125.336
123.509
120.817
117.042
111.845
104.897
96.0315
85.4109
73.4434
60.8463
48.485
37.2302
27.7994
20.5947
15.68
12.8103
11.5387
11.2768
11.458
11.5788
11.3158
10.5382
9.34536
8.02676
7.0051
6.767
7.74223
10.1324
13.8234
18.3029
22.8391
26.5979
28.8637
29.2918
27.9452
25.3317
22.2319
19.4895
17.7207
17.1715
17.6986
18.8594
20.1365
21.125
21.6431
21.7892
21.8247
22.0594
22.6631
23.613
24.6993
25.6366
26.1962
26.2712
25.9176
25.2941
24.5613
23.8732
23.2057
22.4398
21.4501
20.1571
18.5928
16.8995
15.2716
13.8839
12.868
12.2294
11.9375
11.8973
12.0702
12.4531
13.1095
14.0332
15.0655
15.8854
16.1359
15.5085
13.9669
11.7947
9.61545
8.27164
8.51299
10.7496
14.7992
19.9077
24.9467
28.7832
30.5924
30.1647
27.9615
24.9469
22.2969
20.9566
21.369
23.4163
26.5215
29.9393
33.008
35.4035
37.1946
38.7303
40.4572
42.5933
45.003
47.1753
48.2903
47.5661
44.5269
39.3014
32.7584
26.2909
21.4363
19.2523
19.7688
21.6767
22.6171
19.9469
11.9498
-1.13965
-16.5035
-29.0146
-32.5502
-21.9587
4.86263
45.7123
94.057
140.392
174.745
189.46
181.442
153.052
111.404
66.1983
26.9669
0.543052
-10.4113
-7.5058
4.51675
19.6599
32.6359
40.235
41.7848
38.6894
33.4262
28.4823
25.5519
25.1994
26.9646
29.8301
32.6881
34.7413
35.7254
35.7904
35.3543
34.9207
34.8424
35.3312
36.39
37.9275
39.8791
42.2285
45.0305
48.4165
52.4237
56.9471
61.7265
66.3684
70.4906
73.8202
76.309
78.2458
80.1568
82.6249
86.1107
90.786
96.4798
102.764
109.043
114.751
119.554
123.413
126.559
129.327
131.914
134.256
135.956
136.345
134.647
130.223
122.787
112.539
100.159
86.6462
73.0976
60.4633
49.4263
40.3268
33.1559
27.6866
23.5713
20.4656
18.0927
16.2646
14.8734
13.8844
13.3084
13.2027
13.5645
14.3189
15.2875
16.2348
16.8819
17.0422
16.6353
15.749
14.6685
13.7563
13.368
13.6968
14.7103
16.1675
17.68
18.7978
19.1642
18.6129
17.1995
15.2238
13.1119
11.2979
10.1302
9.80403
10.3087
11.4962
13.0625
14.6626
15.9999
16.9133
17.3734
17.4966
17.4995
17.6285
18.0851
18.9346
20.1145
21.3617
22.3534
22.7846
22.4557
21.332
19.6253
17.7161
16.0595
15.0546
14.9264
15.5981
16.7622
17.9395
18.6062
18.359
17.0777
15.0053
12.6989
10.8568
10.1169
10.8106
12.9004
15.8896
19.0117
21.4275
22.5231
22.1609
20.6524
18.6691
16.9581
16.1266
16.3982
17.6608
19.5372
21.5904
23.5332
25.3259
27.1186
29.0596
31.0467
32.6278
33.0809
31.7285
28.337
23.3592
17.9577
13.6522
11.6471
12.1217
13.8652
14.3734
10.7531
1.01167
-14.6667
-33.2673
-49.1987
-55.7555
-47.1782
-20.8059
21.482
73.1603
124.51
165.134
186.784
185.604
163.135
125.685
82.4075
42.6519
13.5371
-1.57416
-3.28879
4.65203
17.0286
28.809
36.4365
38.442
35.2171
28.3977
20.0323
11.9891
5.51451
1.26903
-0.606835
-0.3326
1.64536
4.76483
8.44275
12.0885
15.2267
17.6114
19.2569
20.4681
21.7474
23.5822
26.2648
29.7732
33.8118
37.9036
41.5996
44.5889
46.883
48.7792
50.747
53.2002
56.366
60.2285
64.593
69.2567
74.1137
79.2185
84.7869
90.996
97.8263
104.938
111.72
117.438
121.515
123.724
124.176
123.229
121.269
118.437
114.506
108.909
101.033
90.5803
77.8402
63.7937
49.8744
37.666
28.4265
22.7579
20.4802
20.721
22.2634
23.9333
24.9064
24.8491
23.829
22.2127
20.4314
18.8538
17.6936
17.0298
16.828
16.9809
17.3939
17.9574
18.5306
18.8946
18.8855
18.4678
17.7631
16.9997
16.4915
16.5802
17.488
19.2208
21.5391
24.0013
26.1407
27.547
28.0258
27.5996
26.5357
25.239
24.1497
23.6698
23.9984
25.0933
26.723
28.4999
29.979
30.6834
30.2922
28.7903
26.4168
23.6755
21.1883
19.5043
19.0132
19.7751
21.5067
23.644
25.5482
26.6883
26.7988
25.9971
24.6377
23.2166
22.2116
21.8746
22.2001
22.9206
23.5923
23.7917
23.2833
22.1543
20.7252
19.461
18.8444
19.2577
20.7875
23.1943
25.9314
28.3419
29.8142
29.9968
28.8545
26.714
24.198
22.0386
20.9006
21.1382
22.7481
25.3894
28.4818
31.4191
33.6644
34.9193
35.1605
34.5816
33.5908
32.6408
32.1534
32.5875
34.2925
37.4692
42.0891
47.7487
53.6918
58.8226
61.9014
61.9242
58.5422
52.2541
44.4255
36.9293
31.4611
28.8074
28.4146
28.3172
25.8653
18.8247
6.64977
-8.67069
-22.6276
-29.1706
-22.6273
0.237593
38.6555
87.4105
137.757
179.658
204.439
207.284
188.548
153.565
110.923
69.9541
38.1604
19.4997
13.8099
17.5945
25.6523
32.9918
36.2689
34.446
28.5043
20.6281
13.1792
7.83016
5.22894
5.07142
6.50123
8.61996
10.7945
12.8197
14.7342
16.6727
18.7211
20.8093
22.7297
24.2848
25.4034
26.239
27.0898
28.2932
30.0964
32.5719
35.6665
39.2162
43.0822
47.1969
51.6047
56.4096
61.6694
67.3055
73.0047
78.3067
82.7776
86.1642
88.5658
90.4566
92.5328
95.5036
99.8337
105.526
111.988
118.173
122.84
124.919
123.793
119.471
112.52
103.875
94.5458
85.2946
76.4473
67.9218
59.4392
50.7517
41.864
33.1098
25.1244
18.6269
14.1612
11.9137
11.5488
12.3337
13.4066
14.0109
13.739
12.6019
10.981
9.5018
8.76724
9.12007
10.5459
12.6714
14.9226
16.6746
17.5135
17.3413
16.3654
15.0756
14.059
13.8403
14.706
16.5705
19.0719
21.6277
23.64
24.6586
24.524
23.4126
21.7844
20.3307
19.6699
20.1811
21.9042
24.4708
27.2396
29.4286
30.3647
29.7156
27.6314
24.6931
21.7539
19.6852
19.1095
20.2088
22.665
25.7555
28.6234
30.5876
31.3455
31.0363
30.1515
29.3034
29.0072
29.5033
30.6826
32.1639
33.4808
34.2516
34.3218
33.7184
32.6016
31.1759
29.6316
28.124
26.8866
26.2283
26.461
27.8549
30.4717
34.0186
37.8817
41.1539
42.9815
42.8722
40.8881
37.6584
34.2219
31.6832
30.7817
31.7025
33.9352
36.489
38.2962
38.5878
37.197
34.5472
31.4646
28.8787
27.4797
27.4859
28.6404
30.3784
32.1269
33.5227
34.5344
35.3907
36.3828
37.6807
39.1764
40.4871
41.1373
40.7498
39.2908
37.1987
35.2357
34.2884
35.0266
37.6221
41.7388
46.5639
51.0972
54.4649
56.2436
56.6067
56.2571
56.16
57.1457
59.6117
63.257
67.1163
69.8886
70.3555
67.9888
63.2063
57.3611
52.2726
49.4551
49.4027
51.0808
52.0616
49.3094
40.5015
25.4058
6.66502
-10.3805
-18.9758
-13.0643
10.5195
50.4452
100.655
151.551
192.477
214.687
213.783
190.857
152.017
106.455
63.8127
31.5679
13.3947
8.81724
14.0819
23.8709
33.1446
38.5214
38.873
35.0996
29.3201
23.9515
20.8374
20.7988
23.543
28.0288
32.8586
36.7462
38.8802
39.1072
37.9782
36.4846
35.7346
36.6344
39.5563
44.294
50.0373
55.652
60.0334
62.4539
62.8218
61.7379
60.2683
59.6117
60.7185
64.0411
69.4048
76.1067
83.2235
89.8584
95.5149
100.156
104.14
108.02
112.25
116.995
122.067
127.051
131.446
134.857
137.198
138.573
139.131
138.907
137.623
134.766
129.702
122.021
111.775
99.5981
86.6365
74.2724
63.7034
55.5914
49.8841
45.9432
42.7492
39.3394
35.1426
30.1425
-1e-006
-1.4e-005
-5.3e-005
-0.000138
-0.000291
-0.000517
-0.000813
-0.001154
-0.001489
-0.00175
0.000383
0.02113
0.059002
0.112204
0.158407
0.147351
0.068863
-0.074066
-0.239705
-0.358257
-0.345644
-0.140616
0.252233
0.703679
1.01883
0.965273
0.41482
-0.572634
-1.72804
-2.60264
-2.65672
-1.40013
1.43914
5.80481
11.292
17.2589
22.9572
27.6737
30.9034
32.4047
32.2181
30.6255
28.096
25.1532
22.3114
19.9894
18.4645
17.817
17.9603
18.624
19.4906
20.2518
20.7238
20.8499
20.7262
20.5147
20.3863
20.4373
20.6303
20.8291
20.8694
20.6352
20.1146
19.438
18.7963
18.3589
18.2965
18.6786
19.4528
20.4452
21.4634
22.3545
23.07
23.5875
23.9586
24.2227
24.4256
24.5436
24.5359
24.2884
23.6961
22.7311
21.4584
19.9912
18.4985
17.175
16.2133
15.7801
15.9871
16.8401
18.2298
19.9554
21.761
23.3061
24.276
24.4728
23.8999
22.7723
21.4597
20.3249
19.6644
19.5495
19.8502
20.248
20.4093
20.1676
19.603
19.0365
18.8787
19.4509
20.8152
22.6804
24.5415
25.8453
26.1806
25.4699
24.027
22.3848
21.1107
20.5473
20.7235
21.4235
22.3582
23.2643
24.0608
24.882
25.9653
27.4508
29.3034
31.2646
32.9584
34.0854
34.5748
34.6482
34.7899
35.5658
37.4458
40.6522
45.0464
50.1621
55.2917
59.6156
62.3382
62.7505
60.3945
55.2709
47.99
39.8435
32.5328
27.725
26.4255
28.37
31.7663
33.5734
30.4839
20.3762
3.63517
-16.1628
-32.6959
-38.4734
-27.2374
3.66692
51.803
109.575
165.872
209.052
230.143
225.346
197.014
152.741
103.001
58.1292
25.6304
8.57877
5.59027
12.1301
22.4745
31.6297
36.5635
36.577
32.7729
27.1276
21.5146
17.1548
14.4059
13.0253
12.5805
12.7112
13.276
14.2798
15.813
17.8354
20.1333
22.3728
24.1612
25.2757
25.7622
25.9376
26.2885
27.3475
29.4631
32.726
36.9267
41.5813
46.096
49.9479
52.8752
54.9882
56.6756
58.4768
60.8846
64.2217
68.5539
73.6784
79.1907
84.6348
89.5961
93.8389
97.3133
100.118
102.48
104.65
106.818
108.983
110.902
112.04
111.716
109.201
103.887
95.5592
84.4672
71.3788
57.4767
44.122
32.4754
23.3359
17.0135
13.2636
11.4656
10.8136
10.5715
10.2318
9.57285
8.66918
7.71028
6.97849
6.74001
7.12542
8.11412
9.52046
10.9878
12.061
12.339
11.6111
9.91481
7.56725
5.16365
3.42087
2.95904
4.0529
6.56817
9.95472
13.4168
16.134
17.5055
17.3211
15.7882
13.4555
11.0251
9.12399
8.13259
8.15024
9.04509
10.5019
12.179
13.7007
14.7982
15.3093
15.1044
14.1702
12.644
10.8122
9.10846
7.99901
7.78459
8.54151
10.0704
11.8779
13.3595
14.032
13.6439
12.3207
10.522
8.85287
7.83189
7.74586
8.57365
10.0009
11.5807
12.899
13.6926
13.9414
13.8175
13.6199
13.5862
13.8175
14.2821
14.8362
15.3397
15.6569
15.755
15.6838
15.5822
15.618
15.89
16.4267
17.1947
18.0961
19.0027
19.787
20.3293
20.6038
20.6624
20.5975
20.5265
20.5231
20.6562
20.9461
21.3592
21.8191
22.2801
22.7387
23.2105
23.7052
24.2268
24.7246
25.1596
25.4442
25.5204
25.3373
24.8953
24.2275
23.4487
22.6843
22.0443
21.6224
21.5063
21.7739
22.5252
23.8186
25.6139
27.8604
30.3843
32.8802
34.9395
36.1455
36.1723
34.9097
32.5749
29.6579
26.8733
24.9978
24.6895
26.2945
29.7248
34.4659
39.7266
44.6625
48.5776
51.1523
52.5099
53.1822
53.889
55.2813
57.6117
60.5482
63.2216
64.4745
63.289
59.266
52.9284
45.7389
39.6607
36.3666
36.4527
38.8508
40.9847
39.5174
31.8138
17.2634
-1.70564
-19.7535
-29.8559
-25.4793
-3.00819
36.5682
87.1725
138.941
180.819
203.566
202.411
178.443
138.121
91.2248
47.977
16.2232
-0.375688
-2.70664
4.84683
16.304
26.1872
31.0515
30.0641
24.5983
17.2161
10.5055
6.22136
4.93161
6.14823
8.86869
12.0745
15.0857
17.6938
20.0728
22.5083
25.2068
28.1856
31.3398
34.4958
37.4896
40.2074
42.5844
44.5752
46.1045
47.0978
47.5003
47.4156
47.1057
47.0704
47.8376
49.8654
53.3848
58.2995
64.1929
70.3918
76.2756
81.3681
85.5715
89.1495
92.6201
96.5275
101.235
106.749
112.615
118.045
122.072
123.857
122.889
119.127
112.981
105.192
96.5678
87.7865
79.2041
70.8642
62.562
54.077
45.3326
36.477
27.9028
20.1463
13.6679
8.77878
5.56538
3.89902
3.50905
4.11018
5.48531
7.47129
9.87826
12.4575
14.9075
16.909
18.2241
18.8328
18.9372
18.9447
19.2938
20.2626
21.7689
23.357
24.3351
24.0844
22.3306
19.2504
15.5692
12.3235
10.5528
10.8823
13.3174
17.2296
21.5592
25.197
27.2991
27.5451
26.1817
23.8935
21.5656
19.9279
19.3548
19.8324
21.009
22.3873
23.4961
24.0622
24.0569
23.6395
23.102
22.7482
22.7655
23.1851
23.8409
24.4628
24.7172
24.317
23.0743
21.0231
18.4583
15.8561
13.7041
12.43
12.2465
13.0816
14.5913
16.2795
17.6494
18.3376
18.2594
17.564
16.5724
15.5635
14.7319
14.1567
13.8259
13.6036
13.3987
13.182
13.0306
13.0643
13.3554
13.9125
14.6579
15.4826
16.2755
16.9541
17.4764
17.8164
17.996
17.9764
17.6582
16.9553
15.8787
14.5467
13.2166
12.2254
11.912
12.4514
13.807
15.7165
17.7991
19.6153
20.8474
21.4144
21.4664
21.2607
21.0209
20.9203
21.0512
21.4153
21.9279
22.6026
23.5067
24.7611
26.4583
28.6338
31.195
33.9714
36.8787
39.9114
43.2247
47.0133
51.3918
56.1833
60.8123
64.2435
65.3518
63.2931
57.9955
50.3944
42.2629
35.6879
32.2635
32.3365
34.53
36.0733
33.7444
25.3359
11.005
-6.08142
-20.2556
-24.8555
-14.4331
13.0827
55.0602
104.373
151.02
184.873
198.578
189.645
161.103
120.426
77.2571
40.6238
16.6102
7.07287
9.8381
20.0602
32.1399
41.4697
45.536
44.1017
38.7043
31.655
25.0506
20.2118
17.4618
16.3653
16.1605
16.0488
15.4583
14.1554
12.1872
9.78673
7.31922
5.12442
3.55829
2.91945
3.4813
5.36027
8.41503
12.2739
16.3902
20.2078
23.3055
25.5585
27.2103
28.8146
31.1183
34.8008
40.1804
47.0693
54.8168
62.5752
69.531
75.2374
79.7493
83.5939
87.57
92.4072
98.4317
105.403
112.571
118.894
123.399
125.439
124.824
121.839
117.08
111.174
104.597
97.4877
89.7841
81.3961
72.3106
62.7664
53.2682
44.4698
37.0433
31.4448
27.7699
25.7273
24.7559
24.1879
23.4878
22.3649
20.8453
19.2004
17.878
17.2375
17.4104
18.2627
19.4102
20.3555
20.6983
20.2099
18.9223
17.073
15.0422
13.2141
11.8484
10.9939
10.5467
10.3478
10.2234
10.0571
9.80646
9.51571
9.29934
9.26653
9.4975
9.99722
10.7107
11.526
12.3113
12.922
13.1985
13.0611
12.5945
12.0159
11.6423
11.8006
12.7117
14.4404
16.8021
19.3812
21.6805
23.2648
23.8743
23.5441
22.4998
21.0927
19.7152
18.6658
18.0933
17.981
18.1993
18.5994
19.0569
19.5137
19.9517
20.4014
20.8795
21.3598
21.7642
21.965
21.7736
21.071
19.866
18.3774
17.0051
16.2199
16.4695
18.0275
20.8378
24.4807
28.2022
31.1268
32.5277
32.0364
29.7731
26.2781
22.3825
18.9784
16.7354
15.9483
16.5173
18.0416
20.0239
22.0248
23.7606
25.1287
26.1315
26.8301
27.2887
27.4977
27.4166
27.1015
26.6836
26.3849
26.4727
27.2095
28.8192
31.4384
35.0759
39.5258
44.3178
48.7157
51.7333
52.3627
49.8114
43.9266
35.462
26.1034
18.037
13.2803
12.812
15.9501
20.3368
22.6484
19.9641
11.2605
-1.52408
-13.4555
-17.7886
-8.19765
18.7533
61.7826
114.536
166.894
207.648
227.734
222.892
194.94
151.096
101.707
57.2198
25.3675
9.51193
8.44627
17.6172
31.1111
43.6197
51.7999
54.6528
53.0345
48.6802
43.3302
38.1735
33.6801
29.8906
26.7187
24.2168
22.6138
22.1893
23.0508
24.9876
27.5057
30.0031
31.9707
33.1486
33.6123
33.7398
34.0147
34.8051
36.2196
38.1025
40.0682
41.6829
42.6416
42.9041
42.7446
42.6654
43.2002
44.7536
47.4328
50.977
54.8692
58.5515
61.6234
63.967
65.8207
67.6491
69.9906
73.2464
77.4341
82.0991
86.3707
89.1581
89.3867
86.249
79.4303
69.2193
56.5104
42.6346
29.1091
17.294
8.19367
2.27206
-0.607311
-1.08678
-0.17367
1.0894
1.87506
1.76812
0.843877
-0.381181
-1.1281
-0.591012
1.77138
6.00913
11.6264
17.7196
23.1706
26.9522
28.4157
27.4618
24.5466
20.533
16.4628
13.1991
11.2531
10.7051
11.2207
12.2351
13.13
13.397
12.7785
11.3102
9.29428
7.18516
5.50078
4.71621
5.16096
6.9325
9.80709
13.2922
16.7132
19.3623
20.7015
20.472
18.7807
16.0683
12.9958
10.272
8.40975
7.6133
7.77951
8.60247
9.69339
10.7298
11.5187
12.0592
12.4771
12.8542
13.1255
13.0866
12.4183
10.8761
8.46022
5.50735
2.70509
0.938102
1.02727
3.42433
7.99667
13.9569
20.0793
25.0385
27.8093
27.9357
25.6667
21.8723
17.6972
14.1901
11.9311
10.918
10.6387
10.3528
9.44751
7.66857
5.19918
2.64625
0.752053
0.15999
1.10998
3.4505
6.65047
10.0068
12.852
14.6969
15.3158
14.7457
13.2248
11.15
8.92661
6.94951
5.54852
4.97475
5.36183
6.70332
8.82749
11.455
14.2509
16.8394
18.805
19.7332
19.2432
17.0852
13.3501
8.55976
-1e-006
-7e-006
-2.3e-005
-6.2e-005
-0.000139
-0.000268
-0.000449
-0.000672
-0.000914
-0.001137
-5.1e-005
0.010071
0.021826
0.051659
0.087321
0.112153
0.090669
0.018178
-0.090828
-0.199292
-0.248761
-0.195854
-0.012396
0.277696
0.574662
0.720465
0.573624
0.081076
-0.666883
-1.4345
-1.86501
-1.57623
-0.279922
2.1484
5.58143
9.67305
13.9095
17.7528
20.7709
22.6824
23.4014
23.0031
21.7282
19.924
17.9506
16.1465
14.8145
14.1623
14.2701
15.0518
16.2685
17.5992
18.6875
19.2949
19.3306
18.8704
18.1488
17.4823
17.1797
17.451
18.4042
20.0305
22.2402
24.9615
28.0778
31.5014
35.1115
38.7571
42.2189
45.1804
47.2936
48.1862
47.5935
45.4262
41.7619
36.8539
31.0981
25.0389
19.2625
14.3023
10.5837
8.30783
7.4204
7.62366
8.38706
9.07173
9.06887
8.02239
6.00442
3.49517
1.29901
0.307687
1.25234
4.5022
9.85732
16.5549
23.4874
29.4624
33.5138
35.1232
34.2611
31.369
27.1638
22.5032
18.1794
14.7744
12.6574
11.9842
12.7133
14.5606
17.082
19.6883
21.7523
22.7547
22.3682
20.5844
17.7202
14.3339
11.0707
8.49397
6.94798
6.47896
6.93661
8.09746
9.7311
11.6718
13.7911
15.9883
18.1003
19.8835
21.0099
21.1753
20.2536
18.3852
15.8991
13.2516
10.8938
9.1343
8.11615
7.81637
8.09482
8.81468
9.87909
11.2759
13.0104
14.9639
16.9057
18.5009
19.4305
19.5092
18.823
17.7464
16.8878
16.9648
18.4984
21.583
25.822
30.3811
34.2354
36.4513
36.5095
34.4728
30.9749
26.9806
23.493
21.1603
20.0951
19.8928
19.865
19.3779
18.1635
16.4204
14.8257
14.3143
15.662
19.1246
24.3147
30.2551
35.6495
39.331
40.5106
39.0736
35.5881
31.1708
27.0956
24.4616
23.9948
25.9317
29.9746
35.4108
41.1279
45.7653
47.9578
46.6451
41.4845
33.0582
22.925
13.2849
6.30069
3.1795
3.45124
4.78126
3.602
-3.40558
-17.7759
-37.9144
-58.7969
-73.0016
-72.8846
-53.3256
-13.995
39.6991
97.5559
147.134
177.281
181.338
159.025
116.418
64.0073
13.5198
-25.2968
-47.1688
-51.9626
-43.8101
-29.1426
-14.4156
-4.24249
-0.511886
-2.60171
-8.20787
-14.6476
-19.7716
-22.4851
-22.7343
-21.1567
-18.7068
-16.2225
-14.1937
-12.7266
-11.6072
-10.4434
-8.82224
-6.42394
-3.12434
0.997154
5.62599
10.2878
14.4807
17.8771
20.4524
22.5065
24.5177
27.045
30.5348
35.1506
40.7355
46.8249
52.847
58.3154
62.9706
66.8537
70.2542
73.6355
77.5107
82.2715
88.1062
94.9483
102.477
110.178
117.363
123.311
127.282
128.704
127.266
122.975
116.195
107.541
97.8639
87.9809
78.5857
70.1092
62.6545
56.0704
50.0532
44.2826
38.5094
32.6806
26.9553
21.6816
17.2903
14.1797
12.6456
12.7564
14.3299
16.9617
20.0508
22.9429
25.0361
25.9757
25.6979
24.4327
22.5753
20.6368
19.0483
18.0789
17.7677
17.9505
18.3817
18.8418
19.2034
19.4638
19.7032
20.0223
20.528
21.268
22.194
23.229
24.2785
25.3055
26.2795
27.1925
28.0369
28.829
29.5883
30.3589
31.1748
32.0437
32.9982
34.0386
35.0506
35.8804
36.3107
36.154
35.3241
33.8604
31.9243
29.7922
27.8178
26.3132
25.4423
25.1976
25.3903
25.7455
25.997
25.967
25.6207
25.0504
24.4123
23.8835
23.5986
23.5613
23.6566
23.7276
23.622
23.2562
22.5701
21.5753
20.344
18.9997
17.721
16.7034
16.1645
16.2785
17.1761
18.8851
21.2304
23.885
26.394
28.3267
29.3432
29.3004
28.248
26.4372
24.2161
22.0021
20.0977
18.7246
17.9909
17.9767
18.6708
19.9997
21.809
23.8665
25.891
27.6282
28.8817
29.6317
30.0726
30.6131
31.7283
33.838
37.0913
41.2515
45.628
49.2209
50.9041
49.8128
45.7212
39.2711
31.9008
25.506
21.7595
21.3964
23.6873
26.4458
26.5371
21.066
8.81754
-8.66958
-26.8406
-39.0153
-38.2553
-19.6945
17.4557
68.9482
126.037
177.598
213.083
225.451
213.092
180.117
134.963
87.8609
48.0234
21.3558
9.42982
9.84282
17.7058
27.5832
35.1235
38.045
36.2769
31.3154
25.3419
20.3453
17.548
17.2664
19.0818
22.1614
25.6119
28.7155
31.0713
32.6088
33.4878
34.0632
34.646
35.4667
36.5956
37.9892
39.5228
41.1296
42.8476
44.8055
47.1858
50.1064
53.4833
57.0116
60.2844
62.9774
65.0057
66.5894
68.1929
70.4183
73.7029
78.1845
83.5213
89.0289
93.9639
97.7589
100.272
101.845
103.153
104.909
107.604
111.199
114.998
117.768
118.084
114.783
107.275
95.7738
81.3738
65.7357
50.7994
38.2694
29.2026
23.7645
21.2791
20.4372
19.7538
18.0084
14.5635
9.61846
4.10595
-0.625095
-3.31915
-3.21244
-0.351409
4.39536
9.58861
13.6672
15.4467
14.472
11.1765
6.7032
2.42523
-0.417127
-1.16054
0.170752
2.95323
6.23182
9.11527
11.068
12.0215
12.3269
12.4556
12.7947
13.4633
14.2242
14.6463
14.2866
12.8888
10.557
7.78283
5.36795
4.09868
4.54358
6.86494
10.7702
15.5561
20.2537
23.9563
26.0173
26.2807
25.1259
23.2935
21.6229
20.7982
21.0971
22.343
23.9763
25.2258
25.4749
24.5156
22.6254
20.4204
18.6306
17.8654
18.3823
20.0317
22.339
24.6843
26.5459
27.6708
28.1417
28.1831
28.0834
28.0012
27.9516
27.8033
27.3605
26.5636
25.4737
24.3646
23.5848
23.4025
23.8833
24.8435
25.904
26.6696
26.8843
26.4779
25.6415
24.722
24.0793
23.8854
24.051
24.2678
24.1002
23.2101
21.4932
19.0927
16.4183
14.0008
12.3273
11.6803
12.0496
13.1807
14.7217
16.4161
18.1244
19.864
21.7351
23.8439
26.1893
28.6058
30.809
32.5553
33.812
34.8812
36.331
38.8245
42.9378
48.946
56.6105
65.0702
72.9317
78.6024
80.7206
78.6759
72.8899
64.9203
57.0758
51.7654
50.5858
53.5569
58.7935
62.9352
62.3342
54.5231
39.6376
20.9649
4.49001
-2.75858
4.99048
29.9975
69.7172
116.98
161.677
193.559
205.192
193.999
162.969
119.643
73.7986
34.6568
8.53577
-2.46967
-0.344684
10.1733
23.3106
34.0526
39.3466
38.4567
32.5548
23.9165
14.9917
7.69678
3.0797
1.34595
1.97619
4.02613
6.48567
8.54263
9.76899
10.1757
10.1026
10.1371
10.8467
12.6758
15.7532
19.8984
24.6951
29.6813
34.4606
38.7704
42.4988
45.6193
48.2442
50.5266
52.6799
54.9332
57.5689
60.8303
64.8861
69.7282
75.204
81.0116
86.8063
92.3203
97.3948
101.986
106.128
109.86
113.168
115.884
117.743
118.387
117.468
114.749
110.09
103.474
95.0442
85.0846
74.0113
62.3528
50.6835
39.6006
29.6399
21.2027
14.5292
9.58837
6.19403
4.0077
2.5983
1.57964
0.611054
-0.503418
-1.82426
-3.23404
-4.51888
-5.4573
-5.85705
-5.61101
-4.74977
-3.45078
-1.9699
-0.606059
0.413008
0.964044
1.02999
0.650772
-0.087219
-1.08578
-2.24186
-3.49881
-4.77879
-6.00853
-7.09792
-7.89665
-8.27942
-8.16229
-7.53948
-6.46631
-5.04584
-3.46184
-1.93239
-0.665151
0.219286
0.705221
0.912392
1.03779
1.30757
1.85342
2.69669
3.66887
4.41308
4.5215
3.72853
1.99617
-0.336344
-2.70156
-4.40519
-4.85583
-3.81697
-1.52186
1.38036
3.97108
5.38788
5.14033
3.28937
0.38785
-2.63785
-4.78156
-5.2945
-3.93308
-1.00044
2.79422
6.54071
9.47365
11.166
11.61
11.1846
10.4668
10.0732
10.4308
11.6777
13.6944
16.1231
18.5429
20.551
21.8293
22.1997
21.6968
20.5667
19.1803
17.9895
17.3799
17.5798
18.5395
19.9699
21.4259
22.4556
22.8099
22.5994
22.2747
22.463
23.6862
26.1929
29.7818
33.8409
37.5093
39.9974
40.8893
40.311
38.8613
37.4717
37.0754
38.4249
41.9198
47.5361
54.8853
63.2804
71.8145
79.3634
84.6445
86.3915
83.7444
76.6449
66.1198
54.2537
43.7276
36.9939
35.2813
37.9191
42.2291
44.3318
40.6722
29.697
13.0761
-4.18204
-14.9622
-12.3514
7.82594
45.0156
93.3676
142.982
182.558
202.734
198.849
172.264
129.862
81.8278
38.6333
8.13038
-6.25077
-5.74866
4.82023
19.155
31.5695
38.4337
38.6774
33.4102
25.046
16.2287
9.02558
4.59963
3.23007
4.55443
7.8341
12.1025
16.3713
19.7075
21.4892
21.5268
20.1707
18.237
16.8043
16.9069
19.177
23.5532
29.3124
35.3176
40.4508
44.0212
46.0097
47.0386
48.138
50.3665
54.4091
60.339
67.5919
75.1712
82.0717
87.6142
91.6613
94.5948
97.1187
100.011
103.804
108.61
114.031
119.352
123.744
126.476
127.079
125.427
121.643
116.055
109.055
100.996
92.093
82.4322
72.1034
61.256
50.1477
39.2257
29.0996
20.4483
13.8706
9.73012
8.04584
8.39193
10.0445
12.1792
14.0412
15.1413
15.3455
14.8367
14.0564
13.4415
13.2353
13.4455
13.8469
14.0559
13.7348
12.6883
10.9087
8.64296
6.28144
4.28675
3.05412
2.7902
3.54225
5.18127
7.44027
9.95858
12.3236
14.163
15.1917
15.2791
14.3919
12.6735
10.416
7.99892
5.82341
4.19881
3.24319
2.95433
3.21783
3.84106
4.60685
5.33967
5.95353
6.47498
6.95373
7.46981
8.0614
8.7649
9.56194
10.3703
11.0336
11.3721
11.1545
10.2605
8.71345
6.70672
4.59179
2.82507
1.9157
2.27842
4.07701
7.18229
11.1761
15.3925
19.094
21.6332
22.564
21.8429
19.8326
17.1675
14.6408
12.991
12.6929
13.8597
16.1929
19.1059
21.8821
23.8809
24.7947
24.7144
24.017
23.2664
23.0248
23.584
24.8882
26.5209
27.8302
28.2464
27.5433
-2e-006
-2.6e-005
-8.7e-005
-0.000194
-0.000347
-0.000531
-0.000709
-0.000824
-0.000845
-0.000821
0.003217
0.039421
0.091878
0.123414
0.093903
-0.008098
-0.175634
-0.351246
-0.386383
-0.092464
0.613943
1.58632
2.39557
2.42053
1.18879
-1.32066
-4.46148
-6.92173
-7.0883
-3.75138
3.0943
11.8206
19.3407
22.1026
17.5949
5.87942
-9.62629
-22.5633
-25.2721
-11.2811
22.1124
72.2325
131.049
186.998
228.114
245.438
235.568
201.54
151.83
97.7514
50.2404
17.0567
1.26518
1.22245
11.9305
27.0689
40.9157
49.6849
51.9665
48.3742
40.7109
31.1888
21.7159
13.6487
7.78073
4.43933
3.56676
4.79756
7.58913
11.3274
15.4309
19.387
22.8574
25.727
28.0874
30.144
32.097
34.0518
36.1185
38.3992
40.9823
44.0132
47.598
51.8056
56.606
61.9015
67.54
73.31
79.0287
84.6795
90.3361
96.0583
101.831
107.521
112.87
117.54
121.252
123.894
125.615
126.841
128.079
129.724
131.837
133.993
135.363
134.896
131.578
124.776
114.516
101.556
87.1867
72.9484
60.2159
49.9279
42.3903
37.3031
33.9134
31.2753
28.5895
25.396
21.6739
17.757
14.172
11.5077
10.1701
10.2383
11.4654
13.3283
15.2583
16.7972
17.7237
18.1534
18.3804
18.7975
19.6749
21.0683
22.7546
24.307
25.2703
25.377
24.6546
23.3985
22.0733
21.2076
21.1594
21.9921
23.4898
25.2295
26.7286
27.6448
27.8604
27.4984
26.8344
26.1749
25.8109
25.9301
26.5645
27.6196
28.9107
30.2022
31.1998
31.6151
31.133
29.6101
27.141
24.0686
20.971
18.528
17.3563
17.8448
19.9672
23.2635
26.8892
29.8349
31.2005
30.4541
27.5929
23.225
18.4219
14.4445
12.3953
12.8704
15.7423
20.2176
25.0261
28.8424
30.6631
30.114
27.5839
24.0446
20.6964
18.5427
18.0025
18.8596
20.3193
21.3636
21.1662
19.3756
16.2955
12.6805
9.46191
7.35574
6.58255
6.8391
7.52731
8.05568
8.08358
7.68781
7.28395
7.39239
8.32615
10.0219
11.9685
13.4682
13.9903
13.41
12.1808
11.1966
11.4754
13.7229
17.955
23.3387
28.4223
31.6524
31.9826
29.3401
24.6411
19.4937
15.441
13.2207
12.2814
10.9131
7.04382
-0.518109
-10.9331
-20.8127
-24.7889
-17.0223
6.67486
46.8667
99.4069
155.861
205.333
237.404
245.038
226.619
186.477
133.565
78.9953
32.9499
2.17292
-11.3018
-9.9503
0.700102
14.231
25.2921
30.8195
30.3177
25.3029
18.2745
11.6677
7.15847
5.37023
6.07998
8.52528
11.7552
14.8972
17.2682
18.4411
18.2851
16.9738
14.9144
12.657
10.7935
9.81257
9.95013
11.0551
12.6825
14.2056
15.0796
14.9705
13.9254
12.3207
10.7443
9.84152
10.1252
11.7661
14.5766
18.0604
21.5678
24.4518
26.2592
26.7992
26.2047
24.8627
23.2665
21.8887
21.0017
20.6396
20.5861
20.4524
19.8116
18.3459
15.945
12.7823
9.25431
5.84713
2.9875
0.961947
-0.151559
-0.451643
-0.127701
0.565285
1.4356
2.35314
3.23336
3.98463
4.5115
4.70685
4.50975
4.00164
3.42264
3.13561
3.55719
5.08185
7.93027
12.0157
16.8991
21.8716
26.0807
28.7166
29.2562
27.6272
24.2422
19.9581
15.8376
12.8817
11.729
12.501
14.7971
17.8295
20.6777
22.5767
23.118
22.3435
20.6522
18.5859
16.6288
15.0517
13.8573
12.8609
11.7997
10.4975
8.94829
7.37025
6.12823
5.58278
5.9371
7.21671
9.21592
11.5637
13.7993
15.4932
16.3016
16.0544
14.7709
12.6445
9.98054
7.2002
4.74352
3.04081
2.397
2.93862
4.58824
7.08122
10.0004
12.8695
15.2367
16.8228
17.5209
17.4152
16.7183
15.704
14.5981
13.5571
12.6267
11.8068
11.0497
10.3419
9.74992
9.38822
9.34688
9.6307
10.1099
10.5374
10.6156
10.068
8.7921
6.94834
4.95405
3.43165
2.9894
4.06131
6.72057
10.6771
15.3241
19.8674
23.5154
25.6856
26.0824
24.6958
21.7599
17.7107
13.1493
8.87009
5.76933
4.67367
5.98941
9.38346
13.5593
16.3236
15.0896
7.83659
-5.77021
-23.5507
-40.7497
-50.9473
-47.8117
-27.226
10.8968
61.8941
116.985
165.397
197.221
206.183
191.4
157.51
113.169
68.446
32.0144
9.02961
0.254165
2.63666
10.9783
19.9661
25.7653
26.8006
23.6036
18.0096
12.0856
7.37478
4.52037
3.37708
3.42078
4.22875
5.59601
7.52336
10.0244
12.9629
15.9705
18.5829
20.4738
21.6431
22.4909
23.7369
26.0832
29.8865
34.9495
40.5176
45.6005
49.3503
51.3684
51.9565
51.9902
52.663
55.0408
59.6014
66.0764
73.5432
80.7507
86.638
90.6161
92.8044
93.933
95.0642
97.2219
101.008
106.429
112.888
119.378
124.759
127.984
128.285
125.25
118.967
109.894
98.7708
86.5295
74.1549
62.5393
52.3294
43.8487
37.0333
31.5265
26.8857
22.683
18.6728
14.8455
11.4215
8.73639
7.08367
6.59544
7.17297
8.45707
9.99997
11.372
12.2961
12.7044
12.6794
12.4808
12.4105
12.6617
13.2842
14.1365
14.9771
15.5582
15.6687
15.2334
14.3433
13.2078
12.1126
11.2949
10.9147
10.9914
11.4735
12.2714
13.3403
14.6595
16.2451
18.0686
20.0183
21.8528
23.219
23.6902
22.962
20.9554
17.8321
14.0055
10.0513
6.6049
4.16331
2.99141
3.08667
4.2294
6.10009
8.37175
10.8369
13.3879
15.9758
18.5752
21.0895
23.3189
24.982
25.7514
25.4204
23.9964
21.738
19.1043
16.6627
15.0491
14.7094
15.8206
18.2082
21.3473
24.5385
27.0689
28.386
28.2829
26.9512
24.9292
22.9351
21.5965
21.312
22.0745
23.5348
25.1515
26.4157
27.0097
26.9591
26.5726
26.3195
26.5866
27.486
28.7905
30.0282
30.6869
30.47
29.486
28.2674
27.7196
28.7834
32.1117
37.7754
45.1729
53.0894
59.901
63.9376
63.9478
59.47
51.1169
40.5923
30.3317
22.8463
19.9232
21.8992
27.248
32.7659
34.456
29.0172
15.3928
-4.27963
