227.691
283.961
324.405
326.824
281.58
198.073
101.19
19.6656
-27.0912
-36.4924
-21.1705
-0.383314
10.4591
6.31599
-7.30652
-19.3099
-19.7244
-4.50972
23.3384
56.0958
85.5763
106.937
120.349
129.87
140.159
153.012
165.871
173.638
172.91
165.756
160.161
166.167
189.436
226.551
265.486
291.781
296.838
283.222
263.357
252.272
258.717
280.357
305.95
322.642
323.577
310.902
292.861
277.49
267.501
259.685
248.534
231.061
209.137
187.977
172.409
163.697
159.09
153.684
142.781
123.104
92.8293
51.2057
-0.685541
-58.5323
-114.094
-156.714
-177.072
-171.374
-143.31
-102.956
-62.8573
-33.0856
-18.1141
-16.5182
-22.6697
-28.9814
-27.7066
-12.0258
22.8734
77.9664
148.03
219.974
273.648
286.747
243.269
142.718
5.16242
-131.781
-224.967
-242.78
-179.539
-59.6016
72.1944
169.549
204.343
176.885
112.144
44.6805
1.15891
-10.1826
1.42716
19.4422
31.8415
37.3927
43.5757
58.734
84.6882
114.575
136.863
142.428
130.108
107.447
86.6772
78.5854
87.721
110.905
139.303
162.448
172.571
166.915
147.627
120.2
90.9892
64.9969
44.9128
31.4593
24.305
22.8019
26.0734
32.5555
39.7188
44.7404
45.7086
42.6611
37.5268
32.6561
29.0066
25.3602
19.6962
11.6489
4.3678
3.78293
15.1315
38.5903
67.5341
90.8433
98.5947
87.3831
62.944
36.834
19.7058
15.4548
20.087
25.0054
23.3839
14.5536
4.14434
-0.283882
5.43167
19.1355
33.6259
41.3367
38.7339
27.785
14.1925
3.99261
1.05239
6.77281
21.3738
44.6412
75.0426
107.655
133.38
141.515
125.416
88.0757
43.4777
11.6334
8.9211
38.8938
89.2638
137.153
160.239
147.714
104.912
49.577
2.33707
-23.2391
-25.4757
-12.7148
3.25748
14.0777
18.2285
19.8383
24.5686
35.4543
51.2031
66.8773
77.5745
81.1395
79.1123
75.6103
75.4191
81.1693
92.375
105.905
117.824
125.216
127.2
124.565
118.316
108.702
95.1562
77.3106
56.3401
35.4258
18.7644
9.68066
9.13407
15.593
26.3855
39.3797
53.8012
69.7153
86.7806
103.326
116.623
124.143
124.992
120.352
112.79
104.792
97.6817
91.6859
86.685
82.989
81.6048
83.471
88.4339
94.6291
98.877
98.3655
91.8707
80.7852
68.5412
58.5223
52.437
50.0357
49.4786
48.8027
331.088
297.775
257.842
216.186
176.39
139.966
107.096
77.9225
53.3841
34.8291
22.8691
16.4034
12.965
9.82663
5.42362
0.123085
-4.34877
-6.36505
-5.69712
-3.61235
-1.75787
-0.755837
0.491586
4.18939
12.292
25.4759
42.7994
62.4638
82.9558
103.413
123.24
141.184
154.958
161.807
160.037
150.486
136.841
124.555
118.191
118.338
120.717
118.475
105.553
80.7799
49.8143
23.5322
13.3468
25.488
57.0193
95.3102
122.111
121.143
86.6683
29.0497
-26.647
-50.5507
-23.5208
49.0713
133.856
180.99
147.451
20.927
-169.232
-361.852
-490.9
-515.804
-438.762
-299.912
-154.266
-44.4915
15.1438
36.3461
40.9676
44.2579
48.3697
48.57
44.571
46.8903
72.4365
131.884
218.357
306.009
360.717
356.866
290.601
181.925
64.9475
-27.4243
-76.3946
-82.2329
-59.6504
-27.4521
-0.002142
16.9971
25.2432
29.4052
32.911
36.1482
37.4958
35.4363
30.191
23.8285
19.0841
17.884
20.4255
25.3706
30.62
34.3506
35.7483
35.1273
33.5651
32.3605
32.5234
34.4468
37.8551
41.8973
45.4081
47.269
46.8996
44.6162
41.5345
39.1273
38.5896
40.4559
44.8069
51.8179
62.1379
76.519
94.6871
114.373
131.463
141.723
143.207
137.579
129.206
122.344
118.089
113.473
103.605
85.6618
62.0272
40.3511
30.1207
37.8355
63.6164
101.236
141.245
175.006
197.355
206.83
204.252
191.114
169.112
140.622
109.095
78.753
53.2187
34.1746
21.0027
11.7733
4.90353
0.302655
-0.721627
3.18695
11.9673
23.5056
34.3052
41.0695
42.2748
38.7969
33.0976
27.7285
23.9513
21.2549
18.2093
13.9067
9.03117
5.7568
6.39989
11.6841
19.8659
27.5822
31.9526
32.5537
31.8843
33.7856
40.6149
51.099
60.3793
62.5132
54.0224
36.4275
16.0519
1.16833
-2.14255
6.93872
23.6708
40.3552
50.4545
51.8613
47.6721
44.0119
46.3084
56.123
70.2707
82.7086
87.9586
84.0888
73.5117
61.3299
52.2728
48.0948
47.0574
45.4507
40.2173
30.8525
19.4996
9.35551
2.66663
-0.504071
-1.9356
-3.78865
-7.10863
-11.3265
-14.7972
-15.7627
-12.9551
-5.51632
7.5562
27.4726
54.8899
88.6298
124.712
156.676
177.681
183.378
174.214
155.611
135.782
122.064
117.767
121.119
126.765
128.917
124.178
112.703
97.3741
81.7961
68.6122
58.8033
-0
-4e-006
-1e-005
-1.5e-005
-1.6e-005
-1e-005
-2e-006
-2e-006
-1.8e-005
-4.7e-005
-7.3e-005
-7.6e-005
-4.7e-005
-6e-006
9e-006
-3.7e-005
-0.000139
-0.000239
-0.000254
-0.000138
5.6e-005
0.000179
3.1e-005
-0.000544
-0.001583
-0.001755
0.01007
0.017514
0.010507
-0.014804
-0.050958
-0.06726
-0.035042
0.031956
0.084201
0.05775
-0.059979
-0.214094
-0.284915
-0.176859
0.091994
0.338203
0.310631
-0.099842
-0.720399
-1.10127
-0.777838
0.447502
2.32149
4.20622
5.41239
5.58595
4.90125
3.88255
3.06218
2.6579
2.53333
2.43351
2.28658
2.31907
2.91765
4.25272
6.03399
7.64846
8.48041
8.3417
7.64061
7.11828
7.27046
7.85361
7.8317
6.07257
2.38373
-1.86017
-4.14165
-2.42252
2.95838
8.41429
8.7457
0.887553
-12.1456
-20.0208
-8.5984
32.5466
102.16
183.802
250.036
273.366
239.078
153.122
40.5962
-64.8716
-135.438
-159.741
-144.997
-110.23
-75.2984
-51.9361
-41.1011
-36.6613
-31.9626
-24.7082
-17.5864
-15.2878
-20.4679
-31.6667
-44.1133
-52.5488
-54.0191
-48.9264
-40.1133
-31.0212
-24.0896
-20.0047
-18.0906
-17.0583
-15.7221
-13.4374
-10.3192
-7.18867
-5.32924
-5.85592
-9.01808
-13.8531
-18.4428
-20.6994
-19.2676
-14.0717
-6.15928
2.98732
12.1965
20.9847
29.3399
37.3935
45.137
52.5139
59.6764
67.0873
75.393
84.982
95.6156
106.315
115.779
123.082
128.251
132.344
136.913
143.078
150.876
159.322
167.103
173.544
179.096
184.857
191.44
197.913
201.815
200.353
192.078
177.988
161.196
145.216
131.935
120.719
109.143
94.8921
77.6004
59.314
43.3372
32.3068
26.6376
24.3909
22.4916
18.5154
11.966
4.36636
-1.73311
-4.22449
-2.55641
2.05729
7.38538
11.3106
12.7543
12.0855
10.7555
10.4072
11.7945
14.3828
16.6515
16.9154
14.3791
9.77143
5.16266
2.95905
4.5107
8.97532
12.9896
11.2666
-1.66953
-29.2024
-70.3594
-118.489
-161.627
-185.219
-176.813
-131.256
-54.0989
38.7572
125.645
186.522
210.084
197.456
160.587
116.475
79.9644
58.6118
51.7149
53.1008
55.5472
54.4123
48.7485
40.1973
31.0595
23.0291
17.0583
13.8588
14.152
18.3041
25.6878
34.4818
42.3911
47.8575
50.9982
53.6263
58.0718
65.5622
74.9539
82.9628
85.5819
80.0033
66.0389
46.4833
26.0788
9.7512
0.843819
0.119476
5.86606
14.704
23.0595
28.404
25.9709
24.3585
25.8751
30.6803
37.2931
43.5339
47.873
50.3721
52.5354
56.3193
62.8563
71.7879
81.3787
89.3441
93.9028
94.561
92.3134
89.2463
87.6874
89.2243
93.9313
100.104
104.807
105.104
99.4293
88.4098
74.6653
61.6454
52.094
46.9126
45.0452
44.3854
42.9116
39.5604
34.3591
28.0333
21.404
15.0879
9.44999
4.74443
1.18746
-1.05217
-1.9306
-1.51627
-0.011386
2.26172
4.75404
6.83344
8.04187
8.31118
8.07945
8.07889
8.86834
10.3827
11.9466
12.7026
12.2197
10.8138
9.28889
8.38761
8.25792
8.41098
8.14795
7.08617
5.41382
3.70167
2.53776
2.24603
2.90014
4.47041
6.94831
10.1686
13.6131
16.3745
17.5027
16.5643
14.0138
11.1766
9.64234
10.5274
13.9883
19.1134
24.2056
27.6207
28.4284
26.8126
23.9173
21.1234
19.1256
17.4545
14.949
11.0428
6.83142
4.73099
6.62502
11.6182
15.589
13.8182
5.61114
-2.26211
3.40575
35.9021
99.9389
186.028
272.123
332.717
350.829
325.904
273.276
215.643
171.76
148.848
142.399
142.121
139.439
131.724
121.57
112.946
107.662
104.371
100.321
93.6742
84.5618
74.449
64.7704
56.1634
48.674
42.3256
37.1205
32.6259
27.8433
21.8991
15.4163
11.3367
13.6684
24.0049
37.8294
43.5501
26.2517
-24.7092
-107.894
-205.823
-288.553
-324.311
-292.857
-195.674
-57.7533
80.3403
177.207
205.951
163.573
70.4842
-39.1864
-131.688
-185.683
-197.137
-175.832
-136.919
-92.6082
-48.3849
-4.78175
37.9004
76.0635
103.073
113.05
105.098
84.7906
61.7125
44.5993
37.1866
37.2736
39.3017
38.3106
32.8293
25.0683
18.7254
16.3192
17.7381
20.6092
22.0624
20.4357
15.9506
10.268
5.2543
2.09953
0.90019
0.987251
1.56926
2.37367
3.82533
6.52905
10.9397
16.9719
23.9803
31.0779
37.6544
43.6929
49.6948
56.2432
63.4642
70.8432
77.3622
82.0112
84.277
84.3059
82.7485
80.4088
77.9248
75.549
73.158
70.3761
66.8418
62.4812
57.7137
53.4751
50.7577
49.9377
50.2088
49.6599
46.1801
38.6859
28.0497
16.8347
7.88184
2.605
0.093379
-2.09531
-5.9974
-11.3905
-15.3902
-13.9222
-4.25242
13.1474
34.438
54.3717
68.869
76.8576
80.3034
82.5952
86.405
92.2357
98.4076
102.203
101.502
95.9447
87.1817
78.1864
71.9146
69.974
71.933
75.6206
78.3487
78.4722
76.2855
73.7121
73.1597
75.7429
80.515
84.9822
86.6385
84.5815
80.1805
76.2655
75.3479
78.0679
82.7481
86.4375
86.836
83.9914
80.5075
80.0792
85.0814
94.6219
104.244
107.66
99.75
79.461
50.7766
21.3918
-0.527465
-9.736
-5.82384
7.21469
23.2508
36.9423
45.551
49.121
49.3195
47.8966
45.8114
43.3681
40.8521
38.9291
38.4583
39.9202
42.9538
46.4607
49.1425
50.1154
49.2507
46.9711
43.9087
40.68
37.8046
35.6137
34.337
33.6816
32.665
29.9408
24.5061
16.555
7.81761
1.0549
-1.22864
1.8982
9.19411
17.8328
24.7866
28.3531
28.7854
27.8222
27.393
28.3835
30.1683
31.092
29.6275
25.4802
19.8972
15.0686
12.7566
13.1407
14.6447
14.9268
12.6267
8.64693
5.81624
6.92864
12.1981
18.0961
19.0039
11.4527
-1.52291
-9.10551
3.41509
46.6465
119.063
203.912
273.885
302.194
274.746
197.12
92.5856
-7.85668
-78.2747
-107.265
-99.7961
-71.7063
-40.5851
-17.9533
-6.16844
-0.485966
5.90848
17.0963
32.1234
45.8261
51.8455
46.1304
29.0462
5.44166
-17.528
-33.4654
-39.3245
-36.2815
-28.4806
-20.5585
-15.3335
-12.9886
-11.8469
-9.93286
-6.35349
-1.4925
3.79068
9.01417
14.3489
20.0497
25.7318
30.1977
32.1378
31.2198
28.6993
26.9845
28.2893
33.3325
40.9144
48.7087
54.7439
58.6063
61.5921
65.7471
72.4698
81.5459
91.2616
99.4133
104.581
106.74
106.971
106.59
106.355
106.211
105.785
105.047
104.607
105.309
107.42
110.002
111.09
108.668
101.922
91.9759
81.4553
73.174
68.5101
66.5488
64.6031
59.7469
50.4525
37.3388
22.6904
9.08341
-1.96498
-10.4706
-17.3261
-23.1717
-27.7113
-29.9603
-29.1312
-25.5437
-20.7732
-16.8371
-15.1187
-15.7291
-17.8797
-20.8286
-24.6488
-30.0791
-37.5636
-46.222
-53.6412
-57.034
-54.925
-48.2925
-40.1917
-34.014
-31.5011
-31.802
-32.2695
-30.3329
-25.1614
-18.102
-11.5488
-7.29667
-5.41523
-4.48115
-2.79151
0.371655
4.28166
7.29504
8.09872
6.50896
3.52142
0.674503
-0.848644
-0.787923
0.321935
1.6174
2.39289
2.3416
1.60774
0.639133
0.061478
0.441437
2.02946
4.6563
7.69164
10.3157
11.9276
12.4865
12.4365
12.4114
12.8339
13.6978
14.7109
15.7268
16.9862
19.0919
22.6044
27.6261
33.6991
39.9554
45.5074
45.1194
37.5572
30.9036
26.0182
22.846
20.4313
17.5862
13.7866
9.53764
6.13229
4.67921
5.23925
6.76302
7.83875
7.81839
7.3616
7.91451
10.5008
14.6219
18.2599
19.0475
15.9483
10.202
4.78877
2.73478
5.24626
11.0388
17.2451
21.1992
21.9776
20.5679
18.7412
17.6631
17.2198
16.5436
15.0936
13.4865
13.1404
15.1277
19.1968
23.8203
27.1471
28.2436
27.6622
26.8759
27.0786
28.2876
29.4568
29.4358
27.9409
25.8769
24.6813
25.3118
27.6522
30.6624
33.1533
34.5308
34.9223
34.6365
33.6817
31.65
28.2312
23.8291
19.731
17.4929
17.8937
20.2384
22.5663
22.7045
19.6479
14.2011
8.51397
4.82294
4.19091
6.04029
8.75082
10.8283
11.7929
12.2419
13.245
15.5585
19.2057
23.6674
28.2908
32.4345
35.1396
34.761
28.9453
15.4143
-6.72788
-35.9262
-68.1861
-98.3437
-122.04
-137.297
-144.846
-147.107
-146.559
-144.485
-140.846
-135.029
-126.727
-116.267
-104.253
-91.3153
-78.373
-67.3649
-61.5343
-64.0352
-74.8825
-87.8693
-90.1908
-66.7535
-8.25088
80.848
179.63
256.544
282.139
242.886
148.777
30.0723
-75.6153
-139.33
-151.856
-124.706
-81.3702
-44.4891
-25.9522
-24.4128
-30.0441
-32.4435
-26.7451
-14.9724
-3.01887
3.87347
4.16028
0.062994
-4.62876
-7.04605
-6.47915
-3.99087
-1.10959
1.24294
2.94075
4.1446
4.80369
4.64856
3.56356
2.02298
1.04013
1.6856
4.56985
9.58892
16.1925
23.6877
31.4562
38.937
45.4419
50.3286
53.3736
55.1466
56.9527
60.1698
65.3661
71.8804
78.201
83.007
86.0816
88.4693
91.745
96.8316
103.3
109.56
113.926
115.726
115.716
115.474
116.225
117.906
119.114
118.091
113.904
107.137
99.5672
92.9639
87.9628
83.6509
78.2052
70.1642
59.4866
47.6614
36.917
29.0159
24.4219
22.2299
20.9548
19.4052
17.1948
14.5958
12.0195
9.71021
7.81187
6.64001
6.88054
9.22188
13.7632
19.5913
24.9478
28.1195
28.3686
26.3215
23.5144
21.3374
20.2013
19.4941
18.2909
16.2522
13.917
12.1787
11.453
11.2508
10.5875
8.96281
7.11909
6.80938
9.6238
15.7011
23.2814
29.5254
32.0542
30.3789
26.006
21.3241
18.0496
16.266
14.6785
11.747
6.88744
0.874727
-4.7827
-8.87333
-11.1299
-12.0395
-12.1273
-11.3384
-8.99996
-4.57428
1.46241
7.39912
10.96
10.6977
7.00295
2.16714
-0.826338
-0.075461
4.01607
8.8527
11.1883
9.12085
3.27346
-3.50314
-7.77631
-7.47177
-2.86508
3.89292
10.2678
14.9601
18.5814
22.9612
29.7316
39.141
49.652
58.7454
64.2823
65.6818
64.2044
62.2052
61.666
62.971
64.5768
63.9319
59.1448
50.3757
40.1093
32.0415
29.1116
31.7622
37.6177
42.8267
44.3403
41.8316
37.8861
36.3266
39.3429
45.3083
48.8434
43.7464
27.5668
5.48754
-9.35207
-0.442996
43.7644
121.808
215.973
296.847
334.596
312.143
233.601
123.238
15.1725
-60.9947
-91.5686
-81.7456
-49.7333
-16.1116
5.41718
11.7468
8.0261
1.98645
-0.957042
0.46384
4.39504
8.15996
9.92674
9.24608
6.75316
3.73422
1.71435
2.0183
5.16939
10.3537
15.5856
18.6054
18.142
14.6887
10.2301
6.98947
6.05077
6.80577
7.55417
6.79979
4.27701
1.11657
-0.962836
-0.827674
1.34042
4.12102
5.69202
4.93519
2.1843
-0.802447
-1.61645
1.65387
9.47878
20.6783
32.9706
44.1368
52.9958
59.691
65.1234
70.0823
74.6361
78.3583
81.126
83.7552
87.7845
94.3958
103.176
111.626
116.13
113.895
104.705
91.3658
78.3679
69.5753
66.1962
66.2761
65.9072
61.4265
51.3773
37.1679
22.2853
10.5626
4.4865
4.274
8.06987
12.9231
16.0677
15.9113
12.4539
7.01755
1.57777
-2.02039
-2.74745
-0.759059
2.85324
6.55742
9.01694
9.59334
8.50191
6.53568
4.6046
3.28914
2.67453
2.51614
2.53317
2.72705
3.36913
4.74518
6.80886
9.05846
10.7164
11.1241
10.2002
8.55304
7.1717
6.85176
7.74583
9.24285
10.3286
10.0945
8.24263
5.20624
1.93848
-0.417505
-0.928517
0.917601
5.1212
11.0581
17.4849
22.7416
25.2539
24.2221
20.167
14.8685
10.6581
9.25461
10.9216
14.3539
17.5086
18.7214
17.5095
14.5648
11.171
8.42283
6.99767
7.33549
9.88021
14.9408
22.207
30.3653
37.4005
41.6268
42.8468
42.729
43.9477
48.5291
56.3752
65.1011
71.2994
72.4972
68.6587
62.1138
56.1529
53.1025
53.1887
54.7384
55.5368
54.3616
51.6835
49.0507
47.7735
47.8021
47.7905
46.3538
43.5452
41.3409
42.3341
47.1958
52.8557
53.3898
44.0158
26.3168
11.0513
15.2799
53.9034
129.482
226.458
314.404
360.11
342.939
265.289
152.174
40.0178
-39.5452
-72.2983
-64.4117
-35.4666
-6.56992
9.49583
-2e-006
-3.1e-005
-0.0001
-0.000194
-0.000271
-0.000286
-0.000236
-0.000188
-0.000263
-0.00054
-0.000961
-0.001314
-0.001362
-0.00105
-0.000641
-0.000615
-0.001323
-0.002615
-0.003751
-0.003775
-0.002254
3e-005
0.000915
-0.002581
-0.013202
-0.022989
0.059703
0.184475
0.221029
0.051008
-0.342437
-0.769064
-0.8887
-0.478794
0.27674
0.737824
0.200046
-1.4526
-3.35942
-4.04856
-2.51092
0.665877
3.15428
2.20576
-3.14882
-10.4548
-14.0747
-7.76064
11.7489
42.2458
76.3552
104.714
120.333
121.618
112.423
99.3949
88.3239
81.6191
78.1266
74.8741
69.331
60.735
50.0482
39.0059
29.1686
21.433
16.0777
12.9674
11.6685
11.5153
11.8283
12.2534
12.9307
14.2537
16.27
18.1892
18.5651
16.0254
10.4324
3.54535
-1.61433
-2.34317
2.13343
9.94786
17.3946
20.8812
18.7992
12.2834
4.42401
-1.54911
-3.91687
-3.03999
-0.623838
1.63675
3.04069
3.89168
4.85578
6.23946
7.79923
9.19609
10.539
12.3963
15.1873
18.4941
20.8795
20.6513
17.1881
11.7985
7.42892
7.25944
12.9328
23.5037
35.844
46.212
52.129
53.3539
51.5651
49.1064
47.5563
47.1796
47.1836
46.5246
44.6756
41.8982
38.9342
36.5165
34.9857
34.29
34.1148
34.1031
33.9434
33.3304
32.0537
30.0848
27.6567
25.3127
23.7704
23.6714
25.2726
28.2415
31.6796
34.4132
35.4572
34.472
32.0169
29.3245
27.6932
27.7877
29.152
30.2739
29.3359
25.1966
18.0686
9.63546
2.25369
-2.21178
-3.28474
-2.05428
-0.439642
0.141582
-0.194458
0.217688
3.41042
9.79922
16.8247
19.4509
13.0414
-2.48259
-19.7811
-24.8791
-2.87801
53.5416
137.234
225.812
288.731
299.775
249.051
148.28
26.342
-82.6585
-152.945
-175.766
-159.505
-122.661
-84.1868
-56.275
-42.2747
-39.1601
-41.8281
-46.2644
-50.4946
-53.8994
-56.2663
-57.4997
-57.888
-58.3025
-59.7892
-62.732
-66.2061
-68.1966
-66.5301
-60.09
-49.5246
-36.922
-24.8414
-15.1205
-8.24372
-3.59761
-0.217014
2.45248
4.25931
4.71765
3.66886
1.71478
0.164276
0.338168
2.80815
6.97227
11.3584
14.5454
16.1275
17.2062
19.989
26.6592
38.036
52.7864
67.7503
79.3413
85.2405
85.716
83.4935
82.2712
84.7889
91.2696
99.3864
105.614
107.238
103.867
97.501
91.2785
87.6123
86.8766
87.3291
86.2468
81.5211
72.7788
61.5923
50.6641
42.5569
38.538
38.0856
39.2159
39.4085
36.7615
30.8551
22.9602
15.4411
10.5221
9.2098
10.8247
13.4323
15.0417
14.6834
12.8164
10.8622
10.1663
11.1964
13.453
16.0307
18.3296
20.356
22.379
24.297
25.4215
24.7861
21.929
17.4428
12.8431
9.80001
9.30911
11.2848
14.8397
18.9307
22.7167
25.6186
27.0165
26.1599
22.5918
16.8285
10.7721
7.18708
8.46188
15.1358
25.2414
34.9981
40.5644
39.9524
34.0272
26.0607
19.9163
18.0251
20.2917
24.4247
27.4735
27.619
25.1647
22.1553
20.9466
22.6212
26.2143
29.2283
29.1575
25.0469
18.1467
11.2392
7.11356
7.07144
10.3197
14.6759
17.8262
18.5677
17.2696
15.3963
14.6158
15.9592
19.6021
25.0924
31.7561
38.9731
46.1596
52.6915
57.8399
60.9667
61.7737
60.5252
57.9342
54.8331
51.7544
48.7264
45.4703
41.825
38.2093
35.6355
35.2495
37.5191
41.5985
45.4619
46.9785
45.3614
41.7185
38.1696
35.741
32.5465
24.2016
7.15874
-16.5052
-36.2986
-35.4666
1.14166
76.9327
177.106
270.814
322.629
308.352
227.033
102.569
-26.4709
-123.577
-168.769
-164.043
-128.075
-84.3795
-50.0929
-30.7508
-22.298
-17.2698
-10.5703
-1.75287
6.35189
10.7188
10.3916
6.7708
2.41952
-0.438682
-0.755932
1.31498
4.87485
8.71949
11.7056
13.0383
12.5359
10.8686
9.30427
9.21716
11.3888
15.5593
20.5538
24.9411
27.8188
29.1923
29.8272
30.6071
31.8486
33.1342
33.6244
32.749
30.7681
28.8753
28.6625
31.2947
36.9409
44.6677
52.9349
60.3463
66.1963
70.5884
74.0176
76.9472
79.5596
81.8681
83.9871
86.2759
89.0619
92.2431
95.0685
96.261
94.5497
89.346
81.032
70.8374
60.173
50.0708
40.861
32.3886
24.4914
17.3156
11.3096
6.90322
4.12078
2.46879
1.10517
-0.666707
-3.03536
-5.50207
-7.15162
-7.10131
-4.94058
-0.91687
4.18027
9.30196
13.5447
16.3833
17.6989
17.8124
17.3926
17.3149
18.4693
21.4855
26.35
32.2386
37.7397
41.4191
42.5926
41.7803
40.4601
40.1785
41.5559
43.8488
45.4376
44.968
42.4205
39.371
38.1163
40.2802
45.7551
52.6374
58.1921
60.3072
58.4731
53.8852
48.612
44.5024
42.3437
41.7311
41.578
40.8004
38.872
35.9772
32.7975
30.1294
28.5101
27.8758
27.5763
26.639
24.1959
19.9135
14.2656
8.42546
3.78564
1.33362
287.018
214.766
104.442
-8.34152
-90.668
-125.417
-115.696
-79.5747
-39.106
-10.0681
2.68309
3.40512
-0.193729
-2.24664
-1.12022
1.55345
3.35505
3.11598
1.44074
-0.110967
-0.194224
1.62521
4.82755
8.32236
10.9501
11.9144
10.9621
8.35623
4.86184
1.56719
-0.450812
-0.419626
1.78592
5.60695
9.91018
13.3616
14.7594
13.4718
9.72205
4.65443
0.086035
-2.06339
-0.40626
5.28271
13.8662
23.2109
31.0609
36.0346
38.2703
39.3708
41.6305
46.8777
55.5662
66.5885
77.8648
87.3497
93.9134
97.6147
99.3546
100.071
100.151
99.3583
97.1323
93.1597
87.6682
81.4228
75.3225
69.9565
65.4316
61.4358
57.4917
53.1554
48.0492
41.8479
34.3252
25.6145
16.4985
8.4489
3.22331
2.04731
4.76858
9.67231
14.0285
15.3717
12.7366
7.19489
1.23905
-2.58452
-3.04469
-0.752162
2.37845
4.37844
4.37202
2.938
1.47036
1.1593
2.23365
3.8851
4.88873
4.46977
2.78514
0.787619
-0.410194
-0.150387
1.41154
3.46132
4.98182
5.23849
4.0985
1.98613
-0.294624
-1.82274
-1.86835
-0.122311
3.11533
6.9875
10.3432
12.1521
11.9724
10.1152
7.46634
5.00216
3.31854
2.44747
1.98249
1.51005
0.872962
0.25031
-0.05604
0.09117
0.600926
1.27895
2.00487
2.80223
3.76288
4.87985
5.95791
6.70542
6.90679
6.5325
5.76634
4.8808
4.13888
3.81128
4.15681
5.4256
7.79915
11.2066
15.1611
18.9608
21.9843
24.027
25.4157
26.8992
29.3012
33.1984
38.7994
45.962
54.3262
63.3733
72.4151
80.5296
86.6927
90.0629
90.2908
87.7386
83.394
78.4656
73.9793
70.4452
67.8768
65.9953
64.5962
63.6179
62.8847
61.8908
59.8529
56.2438
51.4622
47.0234
44.7631
45.1789
46.0017
42.5683
30.6614
10.8351
-8.63695
-13.0116
12.4645
73.381
159.568
245.701
300.501
300.551
241.776
142.072
33.4877
-51.95
-95.4013
-96.6822
-70.3248
-35.7489
-7.64805
8.57794
15.2755
17.5478
18.911
19.9019
19.4979
17.3497
14.7888
14.0149
16.3746
21.2243
26.2349
28.7854
27.5002
22.9886
17.514
13.7355
13.4304
16.5664
21.3947
25.355
26.4349
24.2544
20.3593
17.4625
17.9655
22.5916
29.9255
37.1709
41.6125
42.0919
39.5791
36.6299
36.0432
39.4739
46.707
55.8364
64.3038
70.1096
72.6842
72.9651
72.8021
73.9302
77.0984
81.8551
86.919
90.9013
9.7376
6.13788
1.02687
-2.59323
-1.7408
4.63835
14.8687
25.4583
33.1705
36.8363
37.6683
38.0292
39.5524
41.96
43.4989
42.4001
38.3215
32.6951
27.8087
25.3163
25.3501
26.7125
27.916
28.1111
27.3453
26.1358
24.8266
23.2909
21.1576
18.3148
15.1318
12.3387
10.5943
10.2426
11.2525
13.4122
16.412
19.8016
22.908
24.9849
25.6557
25.3365
25.2759
27.0323
31.5619
38.5541
46.4108
52.9625
56.5409
56.6098
53.8435
49.4933
44.6879
40.1188
36.0725
32.7384
30.4001
29.3279
29.472
30.2104
30.3905
28.779
24.6954
18.5254
11.8784
6.95249
5.273
6.40453
7.51281
4.51427
-5.07937
-18.9124
-28.2415
-19.9662
17.5183
87.0292
177.653
265.66
322.12
324.444
266.482
162.105
40.2973
-66.0919
-132.667
-151.3
-130.451
-88.8476
-46.2896
-16.0891
-1.97857
0.132623
-2.3042
-3.08091
0.176228
6.10414
11.4892
13.6229
11.7695
7.23065
2.37072
-0.801264
-1.48213
-0.108521
2.19522
4.28684
5.47426
5.59782
4.88452
3.84802
3.16944
3.54816
5.42818
8.6395
12.384
15.5973
17.5589
18.4205
19.1573
20.9893
24.6125
29.7311
35.28
40.1268
43.8252
46.9914
51.11
57.7899
67.9908
81.467
96.616
110.824
121.279
126.004
124.746
119.236
112.584
107.962
107.247
110.199
114.807
118.385
118.956
116.013
110.373
103.437
96.3583
89.624
83.1635
76.6755
69.8893
62.554
54.4722
45.62
36.3437
27.4412
19.9728
14.7654
11.89
10.5606
9.56599
7.99277
5.88677
4.22669
4.34145
7.03766
11.9698
17.6714
22.215
24.1269
23.0926
20.0464
16.6963
14.7234
15.1085
17.8251
21.9891
26.3113
29.657
31.389
31.4764
30.323
28.5206
26.5801
24.7534
23.0357
21.2117
18.9631
16.0521
12.4566
8.56448
5.14374
3.2357
3.78033
7.18623
12.9365
19.5942
25.2098
28.1011
27.634
24.519
20.5242
17.6131
17.0139
18.6768
21.4597
23.9093
25.0484
24.7135
23.3287
21.3941
19.1335
16.6139
14.0996
12.2798
11.9793
13.4982
16.0793
18.094
17.9371
15.1383
10.9386
7.74225
7.80486
11.889
18.8088
26.0804
31.3033
33.4257
33.0267
31.6149
30.4445
29.7396
28.643
25.8926
20.8054
13.8147
6.38196
0.340367
-2.9392
-3.15784
-1.18677
1.41148
3.14581
3.30242
2.1673
0.891772
0.939791
3.41819
8.49848
14.9618
20.1562
20.4971
12.8847
-3.05672
-22.8228
-36.4163
-30.8028
4.48019
70.6187
155.305
234.316
279.619
271.059
206.028
101.903
-10.5372
-99.8065
-146.176
-147.901
-118.676
-78.5848
-44.1478
-22.4343
-11.5299
-5.43304
0.500173
6.90897
11.5829
12.539
10.3943
8.50532
10.9316
19.917
34.6538
51.8712
67.6437
79.2479
86.0882
89.3978
91.2464
93.5754
97.5786
103.56
111.008
118.788
125.561
130.287
132.767
133.787
134.78
137.049
141.08
146.402
152.115
157.545
162.66
167.949
173.927
180.771
188.294
196.188
204.185
211.937
218.809
224.165
228.088
231.893
237.551
245.656
253.032
251.797
231.502
184.273
110.435
21.1462
-64.2518
-125.557
-150.211
-138.534
-102.859
-60.9922
-27.9662
-10.3358
-5.55313
-5.9787
-4.46735
1.87352
11.4671
20.7232
27.0646
30.4875
33.0637
37.3067
44.6392
54.908
66.717
77.9654
86.2805
89.1993
84.6879
72.0615
52.9368
31.4268
13.0448
2.45492
1.29578
7.30803
15.5177
20.8931
20.8935
16.5503
11.456
9.38106
11.9612
17.8942
23.8195
26.3891
24.1072
17.9985
10.9029
5.89342
4.81537
7.68774
13.0262
18.7699
23.1855
25.4277
25.5257
24.0692
21.8581
19.749
18.5618
18.9412
21.0666
24.371
27.503
28.7827
27.0986
22.7081
17.4118
13.8317
14.1158
18.8065
26.5407
34.8805
41.5967
45.771
48.0603
50.0295
53.1307
57.9253
63.9988
70.4248
76.3715
81.4103
85.4304
88.41
90.3706
91.5389
92.5222
94.1849
97.093
100.898
104.087
104.549
100.653
92.4642
82.2101
73.6028
70.0952
73.0535
80.7997
89.4519
94.9674
95.2627
90.9113
83.9962
75.824
65.3228
49.8971
28.7102
6.4286
-5.57086
7.19021
54.6894
134.524
228.61
307.677
342.468
316.672
234.926
121.569
10.5309
-68.6727
-101.905
-93.5875
-61.3976
-26.2178
-2.75678
4.88441
1.65656
-3.79298
-4.77176
0.389614
8.75473
15.5454
17.3042
13.6865
7.20837
1.50167
-0.735434
0.989726
5.05459
8.96588
10.8993
10.5633
9.05096
7.83818
7.71725
8.31645
8.54944
7.53743
5.48217
3.76815
4.28499
8.34551
15.9391
25.6954
35.5328
43.5472
48.7247
51.1434
51.8039
52.1222
53.4915
56.9398
62.9731
71.4966
81.8523
92.9128
103.294
111.743
117.555
120.841
122.548
124.044
126.391
129.675
132.919
134.602
133.528
129.49
123.313
116.226
108.954
101.284
92.3865
81.6755
69.6769
58.0909
48.9658
43.4464
40.9728
39.5445
36.9285
32.029
25.5348
19.4792
15.8487
15.276
16.5457
17.337
15.6722
11.126
5.1467
0.281209
-1.21184
1.38041
6.88203
12.8458
16.8264
17.5581
15.507
12.4569
10.4642
10.6997
12.9343
15.806
17.8198
18.2308
17.3521
16.1557
15.4836
15.4548
15.542
15.1958
14.4609
14.0042
14.5195
15.9886
17.3914
17.1524
14.1782
8.7863
2.73122
-1.62001
-2.57769
-0.062893
4.45463
8.86559
11.5492
12.0064
10.7386
8.67762
6.62992
5.02849
4.03197
3.7512
4.18799
5.11335
6.00839
6.24272
5.48012
3.93991
2.28229
1.19749
0.952487
1.24077
1.46983
1.27526
0.916666
1.15886
2.78293
5.97462
9.959
13.2633
14.3725
12.4733
8.03422
2.75987
-1.14041
-1.92881
0.92364
6.37255
12.1961
15.9409
15.9437
12.071
5.74386
-0.650361
-4.76511
-5.2759
-2.37085
2.62804
8.3291
14.4452
22.1799
33.2983
48.1398
63.8801
74.7406
74.9945
63.6609
48.2732
44.2903
68.7822
130.757
223.148
321.819
393.715
411.065
364.488
267.93
152.45
52.1306
-10.4247
-31.5916
-24.1211
-7.2556
4.05196
4.9397
-0.585636
-5.41682
-5.1142
-0.203563
5.59988
8.86706
8.82628
7.24407
6.53974
7.74479
9.94028
11.307
10.5519
7.73522
4.08546
1.05769
-0.506845
-0.676306
-0.088577
0.499723
0.524842
-0.237939
-1.61206
-3.00158
-3.52136
-2.35552
0.726842
5.09652
9.46433
12.668
14.4869
15.8468
18.3501
23.2897
30.791
39.7455
48.5012
55.8314
61.5126
66.1606
70.5724
75.2181
80.1717
85.4946
91.4916
98.6096
106.928
115.772
123.852
129.984
133.841
136.141
137.993
139.902
141.102
139.821
134.348
124.161
110.399
95.3147
81.1188
69.0732
59.3379
51.4649
45.0477
40.0094
36.3317
33.6032
30.9665
27.4373
22.5356
16.6838
11.0231
6.77415
4.58026
4.28384
5.14424
6.33606
7.33475
8.04966
8.63335
9.29561
10.2549
11.7946
14.2184
17.6288
21.6261
25.2123
27.0906
26.3481
22.9931
18.0898
13.3653
10.4496
10.1492
12.2094
15.5115
18.686
20.6334
20.8711
19.5529
17.3877
15.3455
14.3587
14.9228
16.8373
19.228
20.9339
21.1245
19.8621
18.0617
16.883
16.9575
17.8837
18.4407
17.38
14.2864
9.90615
0
2e-006
-2e-006
-2.9e-005
-0.000107
-0.000247
-0.000434
-0.000613
-0.000715
-0.000704
-0.000638
-0.000668
-0.000963
-0.001569
-0.002301
-0.002791
-0.00272
-0.002125
-0.001532
-0.001714
-0.003097
-0.005181
-0.006525
-0.005648
-0.002646
-0.001463
-0.013557
-0.013112
0.04206
0.172901
0.31235
0.324453
0.045647
-0.577024
-1.37565
-1.90697
-1.74377
-0.811847
0.306347
0.532303
-0.97424
-3.95335
-6.74111
-7.04245
-3.71346
1.62299
4.67657
1.12
-9.21458
-19.1264
-14.8841
17.9276
85.5851
179.287
274.804
340.529
350.771
297.889
196.672
78.4809
-21.9902
-80.6626
-91.9592
-67.5831
-28.0227
7.97154
30.5168
39.788
42.1716
44.6973
51.0487
60.6097
70.1165
76.2703
77.6321
75.0767
71.0393
68.2026
68.3045
71.5069
76.5447
81.4792
84.6874
85.6008
84.892
84.0656
84.5707
87.0954
91.2758
95.9394
99.7857
102.094
103.072
103.77
105.543
109.359
115.273
122.365
129.14
134.266
137.089
137.754
136.778
134.473
130.581
124.48
115.707
104.536
91.9571
79.1955
67.0196
55.3917
43.745
31.7018
19.6045
8.68701
0.470937
-4.07841
-5.12122
-3.87786
-1.9305
-0.454024
0.160017
0.13034
-0.225883
-0.865232
-1.90316
-3.11773
-3.43537
-1.0051
6.07011
18.5155
34.9813
52.0048
65.2601
71.3988
69.5985
61.8723
51.9684
43.4027
37.8184
34.6844
32.3032
29.3559
25.8409
22.8499
21.4055
21.3449
21.186
19.1188
14.314
7.6924
1.46235
-2.21541
-2.50601
-0.309462
2.41708
3.89743
3.45149
1.65825
-0.253104
-1.1922
-0.74677
0.805899
2.71753
4.22683
4.80863
4.36609
3.28888
2.26552
1.96154
2.65327
4.02268
5.22958
5.39246
4.19439
2.13111
0.258413
-0.436864
0.294989
1.81856
3.03772
3.14643
2.17347
0.95817
0.612447
1.84014
4.5115
7.85815
11.0419
13.6303
15.794
18.0179
20.5749
23.1921
25.1582
25.7508
24.7378
22.595
20.3184
18.8586
18.6138
19.2855
20.1072
20.3496
19.8666
19.1746
19.0943
20.1602
22.1808
24.2779
25.4473
25.2617
24.287
23.8994
25.57
29.9322
36.367
43.2167
48.4922
50.7247
49.5179
45.446
39.5378
32.7382
25.695
18.8225
12.6372
7.79403
4.81852
3.62623
3.29282
2.53381
0.700572
-1.43142
-1.85168
1.18514
7.05553
11.7853
9.54747
-3.32601
-23.7542
-40.0407
-35.3195
4.21552
79.9682
176.029
262.695
307.926
291.599
215.25
101.974
-13.4889
-99.4461
-139.352
-135.545
-104.301
-65.922
-35.5966
-19.1216
-14.0935
-14.4007
-14.6523
-12.4277
-8.12625
-3.49634
-0.134833
1.30032
1.15097
0.448127
0.370893
1.79227
4.82962
8.80554
12.5554
15.031
15.7376
14.956
13.3521
11.6236
10.2468
9.55589
10.0029
12.1619
16.3955
22.3313
28.6569
33.5681
35.7057
35.069
33.305
32.9887
36.3882
44.2653
55.4499
67.42
77.5664
84.3994
88.0428
89.8591
91.5409
94.2179
98.0942
102.688
107.257
111.233
114.382
116.72
118.376
119.542
120.412
120.995
120.879
119.15
114.709
106.86
95.9967
83.7366
72.301
63.4527
57.5136
53.161
48.1651
40.7098
30.5208
19.0869
8.91939
2.27453
-0.052358
0.983546
3.27757
4.81974
4.75507
3.70367
3.16647
4.36485
7.31157
10.7188
12.7477
12.2184
9.39024
5.77526
3.18195
2.61717
3.73922
5.256
5.992
5.72217
5.21315
5.56098
7.16278
9.30786
10.5978
9.96746
7.46619
4.3077
2.18558
2.31752
4.80751
8.72536
12.6777
15.4867
16.6194
16.0918
14.2636
11.5823
8.50859
5.50163
3.01031
1.42636
1.03058
1.96019
4.11187
7.03776
9.86021
11.3555
10.3491
6.31943
-0.135278
-7.21191
-12.4652
-13.7415
-10.1416
-2.49512
6.93276
15.3817
20.6352
21.8338
19.6506
15.9322
12.9218
12.5102
15.651
22.1405
30.6554
39.1643
45.6024
48.5944
47.998
45.1023
42.0526
40.9643
42.9668
47.7632
53.8544
59.4336
63.4009
65.9202
68.1279
71.1383
75.0461
78.5396
79.5392
76.4169
69.1507
59.5577
50.4986
44.447
42.294
43.1053
44.7866
45.2095
43.1625
38.8317
33.6033
29.4784
28.1568
30.0286
33.3352
34.3075
28.8197
15.4816
-1.27999
-10.5841
1.4381
44.673
117.555
203.729
276.009
306.925
281.119
203.205
96.6552
-6.0935
-77.352
-104.665
-93.3477
-60.7648
-26.3613
-3.03388
6.19001
5.86656
2.92861
2.11818
4.19361
7.12379
8.49996
7.40119
4.7894
2.55156
2.18157
3.95596
6.84191
9.15657
9.54205
7.62229
4.15929
0.611849
-1.681
-2.1593
-1.22638
0.183611
1.29987
2.09977
3.26929
5.75713
10.1138
16.1708
23.1461
30.0078
35.8012
39.7621
41.4292
40.8068
38.6136
36.4688
36.5996
40.9836
50.4315
64.1202
79.8792
95.2293
108.506
119.303
128.078
135.275
140.68
143.588
143.516
140.96
137.345
134.181
131.986
129.776
125.589
117.829
106.499
93.4465
81.4281
72.5078
66.8199
62.5438
57.0294
48.4379
36.8652
24.3099
13.5659
6.73923
4.21575
4.68548
6.04595
6.65762
6.0685
5.10728
5.12046
7.10527
11.1358
16.3757
21.5258
25.4103
27.4475
27.6752
26.6444
25.0717
23.5902
22.5794
22.1047
21.9902
21.9733
21.9218
21.902
22.2118
23.146
24.7253
26.5987
28.1483
28.811
28.4534
27.4407
26.461
26.032
26.1501
26.313
25.8601
24.3815
21.9631
19.1339
16.4664
14.2085
12.1958
10.0425
7.551
5.0576
3.44509
3.61938
5.80946
9.14649
11.8622
12.0677
8.88811
3.19774
-2.61501
-5.92501
-5.30342
-1.39635
3.36481
6.1859
5.63932
2.48456
-0.842105
-1.81715
0.504659
4.93541
8.91733
10.2065
8.30015
4.85193
2.73753
4.44582
10.7108
20.1047
29.8101
36.9525
39.9029
38.8141
35.2857
31.3163
28.134
25.6039
22.548
17.6661
10.5962
2.5032
-4.34699
-7.9006
-7.75077
-5.63826
-4.48315
-6.462
-11.2674
-16.0913
-17.5445
-14.5193
-9.83814
-8.9805
-15.8729
-28.1245
-35.2931
-22.6256
20.8242
93.7906
179.379
249.686
277.174
247.348
165.99
57.1166
-47.2556
-120.254
-149.606
-139.559
-105.485
-65.2107
-31.8037
-10.6993
-1.09586
0.797533
-1.13013
-4.10805
-6.37359
-6.7724
-4.75434
-0.648628
4.3515
8.64237
11.0148
11.1468
9.54505
7.07259
4.4664
2.10588
0.197638
-0.946399
-0.831521
0.945864
4.285
8.35973
12.0672
14.5982
16.0188
17.2644
19.5793
23.6837
29.234
34.9569
39.4284
42.0397
43.4724
45.3357
49.2054
55.6806
64.0458
72.7133
80.1415
85.65
89.6428
93.2264
97.4046
102.449
107.756
112.236
114.953
115.707
115.148
114.45
114.504
115.321
115.849
114.458
109.822
101.728
91.256
80.2334
70.3319
62.3618
56.0461
50.4356
44.5851
38.0147
30.7808
23.2417
15.8924
9.40039
4.70122
2.8013
4.30255
8.72091
14.377
18.8658
20.1609
17.6606
12.5302
7.09096
3.64574
3.48014
6.51586
11.7954
18.0816
24.3847
29.908
33.8468
35.3431
33.7863
29.2436
22.6798
15.6571
9.79148
6.12047
4.83127
5.3967
6.9101
8.35907
8.83824
7.78913
5.29791
2.29235
0.452488
1.61067
6.78088
15.3479
24.9532
32.3311
34.8149
31.7182
24.7561
17.1532
11.9848
10.5871
11.9937
13.7863
13.7228
11.1011
7.08928
3.88805
3.20323
5.20136
8.41933
10.6707
10.3838
7.43837
3.14977
-0.533733
-2.0927
-1.12781
1.52086
4.22519
5.34649
3.84843
-0.202558
-5.61229
-10.4007
-12.517
-10.7063
-5.08667
2.89302
11.0557
17.5431
21.58
23.6035
24.7075
25.8076
27.0919
28.0705
28.1188
26.9763
24.7181
21.3656
16.4963
9.29259
-0.765801
-13.0438
-25.4553
-35.1284
-39.8493
-39.3694
-35.8088
-32.5328
-32.1771
-35.0198
-38.8616
-40.7274
-39.3851
-37.0046
-38.3325
-47.4044
-63.2516
-77.5049
-76.2513
-46.2618
16.9562
103.678
190.758
249.486
257.509
208.972
117.778
12.0073
-77.8216
-130.791
-142.276
-122.621
-89.5746
-59.083
-39.1819
-29.3113
-24.1175
-18.4199
-10.4721
-2.0163
3.91048
5.55307
3.57655
0.366944
-1.60785
-1.16391
1.12279
3.61876
4.79343
4.12675
2.27768
0.660233
0.655413
2.88625
6.84444
11.1459
14.0782
14.3759
11.8601
7.6144
3.57505
1.61349
2.61286
5.99807
10.1239
13.2842
14.842
15.7748
18.1221
23.6523
32.5722
43.1
52.3181
57.808
59.1036
58.0145
57.564
60.2257
66.5582
75.0512
83.1232
88.5622
90.4102
89.0186
85.4489
80.7944
75.9223
71.6186
68.6797
67.6072
68.0412
68.4579
66.5754
60.3714
49.3383
35.0773
20.7759
9.715
3.70142
2.34616
3.47229
4.54217
4.11445
2.53011
1.38749
2.20497
5.26497
9.26614
12.0727
12.0614
9.22793
5.20808
2.41828
2.61672
5.95334
10.9901
15.6197
18.2688
18.559
17.2135
15.3354
13.6517
12.2109
10.6339
8.58675
6.19299
4.04137
2.86566
3.15187
4.99487
8.13734
12.1269
16.4298
20.5535
24.1291
27.0443
29.532
32.1775
35.7421
40.7578
47.1148
53.8479
59.3092
61.772
60.1277
54.4777
46.197
37.3123
29.6449
24.1553
20.7586
18.7482
17.4432
16.6704
16.6985
17.7783
19.785
22.1119
24.0407
25.2198
25.9264
26.7005
27.8192
28.8096
28.5494
25.9716
20.9532
14.7074
9.34892
6.84372
7.9378
11.7626
16.311
19.6191
20.8253
20.5525
20.4613
22.2172
26.5549
33.011
40.3031
47.0107
52.1462
55.3959
57.0095
57.6021
57.8448
58.2224
58.719
58.6792
56.9025
52.2022
44.1447
33.6129
22.6159
13.5239
7.98886
6.18715
6.76448
7.55556
6.68405
3.53925
-0.842446
-4.22195
-4.38941
-0.68064
5.00411
8.5538
5.95828
-3.18454
-12.8274
-0
-6e-006
-1.9e-005
-3.9e-005
-5.5e-005
-6e-005
-5.5e-005
-5.8e-005
-8.8e-005
-0.000156
-0.000243
-0.000311
-0.000327
-0.0003
-0.00029
-0.000369
-0.000565
-0.000818
-0.000996
-0.000982
-0.000777
-0.000557
-0.000652
-0.001473
-0.003428
-0.005248
0.009258
0.037304
0.045349
0.011422
-0.06833
-0.145662
-0.150992
-0.067407
0.052234
0.078986
-0.084592
-0.412921
-0.702374
-0.727686
-0.42366
0.008595
0.146526
-0.327551
-1.3485
-2.35952
-2.54873
-1.22121
1.8869
6.55758
12.2388
18.2616
23.9656
28.6994
31.9407
33.5368
33.981
34.4175
36.1575
39.8631
44.9224
49.5622
51.79
50.6811
47.0954
43.2554
41.3261
41.9025
43.4502
43.1593
38.7118
29.825
18.5523
8.16577
1.37124
-1.05373
-0.330075
1.32906
2.05629
1.26687
-0.401523
-1.7693
-1.9738
-0.945778
0.684796
1.99459
2.30251
1.43951
-0.126487
-1.53435
-1.94079
-0.955429
1.05652
3.12292
4.23376
4.0103
3.09133
2.85067
4.57722
8.56778
13.788
18.3334
20.4758
19.6499
16.7509
13.5351
11.5316
11.2057
11.9281
12.718
13.1346
13.6176
15.0118
17.6473
20.7581
22.7248
22.1745
19.0787
14.9999
12.2429
12.3085
14.8362
17.7235
18.49
15.9782
11.2401
6.93515
5.62092
8.029
12.5987
16.4317
17.2088
14.6053
10.425
7.33545
7.1266
9.76142
13.592
16.6997
18.184
18.5535
19.0577
20.4977
22.4457
23.514
22.3996
18.9936
14.684
11.6253
11.3688
13.9454
17.8984
21.1984
22.5263
21.9288
20.5127
19.515
19.4555
20.0726
20.9446
22.2078
24.66
29.0742
35.248
41.6665
46.0853
46.9165
44.2317
39.7052
35.5053
32.7988
31.0202
28.4472
23.592
16.4834
8.95891
3.62848
2.21148
4.38054
7.8944
10.0095
9.33781
6.86073
5.33873
7.20161
12.2547
16.8651
15.6726
5.55461
-10.4113
-21.7575
-14.0758
23.7087
91.6816
175.33
249.055
285.92
269.385
201.118
100.723
-2.39326
-80.9516
-119.815
-119.562
-93.0412
-57.5786
-27.2813
-8.81382
-1.49089
-0.475734
-0.590623
1.14932
4.94471
9.13767
11.6906
11.3604
8.27682
3.81639
0.039776
-1.13428
1.33259
7.14916
14.7972
21.943
26.3231
26.5988
22.8887
16.738
10.4851
6.21687
4.95995
6.36821
9.09197
11.6175
13.0517
13.5352
13.9766
15.4008
18.3927
22.836
28.1718
33.7714
39.2935
44.7504
50.2766
55.9214
61.5567
67.0368
72.4351
78.0758
84.3412
91.2798
98.2493
103.993
107.132
107.012
104.279
100.736
98.5294
98.9567
101.672
104.758
105.652
102.524
95.1967
85.1097
74.3866
64.6835
56.4552
49.1267
41.9446
34.8425
28.6796
24.6048
23.1657
23.6935
24.4539
23.5586
20.1152
14.7683
9.47084
6.44641
6.9825
10.7522
15.9689
20.3619
22.2764
21.371
18.515
14.9897
11.7182
8.83115
5.95538
2.86383
-0.024584
-1.65209
-0.948996
2.43981
7.69389
13.0277
16.521
16.997
14.6106
10.7999
7.64956
6.88658
9.12499
13.4971
18.0497
20.6885
20.2317
17.0762
12.9849
10.1326
9.85079
11.9008
14.7001
16.5279
16.6776
15.9493
15.9622
17.8369
21.1541
24.0878
24.6226
22.0264
17.4659
13.3081
11.6058
12.7582
15.4485
17.6982
18.2787
17.4512
16.4614
16.3346
16.8756
16.7696
14.6608
10.3758
5.5185
2.67446
3.78549
8.79762
15.4408
20.4325
21.3586
18.1136
12.941
9.16159
9.32464
13.8341
20.9355
27.7747
32.0351
33.0059
31.6395
29.6917
28.628
28.9002
29.9119
30.5753
30.0168
28.017
25.0818
22.1577
20.1763
19.6575
20.4146
21.7298
22.8141
23.4185
24.0898
25.6783
28.3625
30.7833
30.4489
25.7775
18.9415
17.4666
32.5955
74.0251
143.138
228.659
308.108
355.63
352.934
297.971
206.635
106.21
23.9923
-23.3077
-34.3675
-20.4787
2.2824
21.3216
32.076
37.3223
42.7418
52.0652
64.4899
75.4394
79.6149
74.113
60.049
42.0267
25.8807
16.112
14.2231
18.5245
25.3722
31.0107
33.0762
31.1556
26.415
20.6343
15.463
12.041
11.0088
12.6583
16.8421
22.7806
28.9688
33.5013
34.9667
33.2738
30.0153
27.9348
29.6135
36.0959
46.1991
56.9655
65.0553
68.4299
67.302
63.9887
61.6897
62.8771
68.218
76.4952
85.4467
93.0613
98.4507
101.989
104.658
107.197
109.566
111.043
110.752
108.263
103.841
98.2311
92.1605
85.9193
79.2486
71.7002
63.1273
53.9353
44.983
37.1618
30.9678
26.2889
22.5261
18.9546
15.0343
10.613
5.99293
1.80113
-1.15746
-2.14662
-0.88306
2.20098
5.93311
8.80957
9.7159
8.56554
6.3778
4.82456
5.28648
8.05003
12.1008
15.5927
16.7468
14.7727
10.2191
4.82089
0.892208
0.417661
4.26099
11.7779
20.9279
29.0246
33.7375
34.1085
30.9249
26.3051
22.6695
21.6139
23.2054
26.0973
28.3916
28.6292
26.4696
22.7347
18.8434
16.0545
14.9728
15.4605
16.8665
18.4804
19.8435
20.7611
21.1853
21.0685
20.317
18.9073
17.1508
15.6375
14.9767
15.3709
16.4021
17.1146
16.5539
14.3567
11.019
7.67805
5.51385
5.22821
6.84161
9.94801
14.0462
18.6754
23.3155
27.2252
29.4981
29.4778
27.3605
24.3975
22.549
23.6623
28.4517
36.0608
44.393
51.1531
54.985
56.1239
56.2482
57.5856
61.648
68.308
75.8502
81.8016
84.2522
82.9019
79.1207
75.0174
72.1662
70.7559
69.5205
66.7312
61.3928
53.8573
45.5427
38.003
32.1911
28.2688
26.2002
26.1247
28.0444
30.8335
31.6019
26.5662
13.8315
-3.26678
-14.7205
-6.61451
32.1644
102.134
189.025
266.658
306.723
291.226
221.322
117.593
11.5087
-67.8231
-104.831
-101.634
-73.7815
-40.8823
-17.5295
-8.51325
-9.74996
-13.0973
-11.849
-4.00537
7.66426
18.0629
22.9424
21.1821
15.2699
9.76722
8.71862
13.436
21.6806
28.957
31.1295
26.9283
18.6848
10.9592
7.82076
10.5241
16.9888
23.349
26.4741
25.7671
23.2042
21.7744
23.5258
28.48
34.9095
40.6615
44.5419
46.8182
48.757
51.582
55.6657
60.3341
64.4184
66.9622
67.8341
67.7831
68.0072
69.4528
72.3155
75.9616
79.3864
81.791
82.9982
83.407
83.4398
83.0556
81.6079
78.2664
72.6092
65.0582
56.7317
48.8198
41.8568
35.4619
28.7295
21.0385
12.6601
4.81573
-0.955274
-3.58808
-3.11304
-0.725851
1.82644
3.09403
2.59625
0.954926
-0.567364
-0.798202
0.628932
3.10846
5.46329
6.72297
6.77171
6.4166
6.76254
8.34149
10.6469
12.4223
12.5056
10.684
7.94287
5.84185
5.5038
6.82142
8.58188
9.3393
8.4516
6.51908
4.92352
4.82224
6.27429
8.13162
8.78427
7.30297
4.08554
0.702403
-1.07241
-0.37386
2.22117
5.08036
6.6033
6.21914
4.7006
3.6025
4.13907
6.4302
9.52453
12.1424
13.6502
14.4598
15.6164
17.7536
20.3895
21.9713
20.878
16.6161
10.4334
4.8314
2.14134
3.20677
6.8914
10.8252
12.8642
12.291
10.1253
8.27357
8.30139
10.5082
13.8701
16.8267
18.3223
18.4183
18.1807
19.0173
21.8436
26.6145
32.4413
38.1339
42.8663
46.6812
50.419
55.2573
61.9677
70.2482
78.5274
84.4434
85.8013
81.5803
72.5038
60.7441
48.9257
38.8865
30.9828
24.2541
17.4313
10.0644
3.04143
-1.98959
-3.8402
-2.84435
-0.720859
0.671094
0.902185
1.36135
3.95058
8.68684
12.3242
9.72641
-1.91789
-18.4856
-27.599
-12.9967
36.4783
117.84
210.768
283.47
306.019
264.453
168.188
46.5309
-64.1155
-135.559
-157.935
-140.26
-102.521
-64.6275
-38.2966
-25.1606
-20.2419
-17.4519
-13.5032
-8.49819
-4.21425
-1.97257
-1.66753
-2.27165
-2.89829
-3.38355
-4.044
-4.9496
-5.5061
-4.70722
-1.90715
2.46012
6.84737
9.44061
9.21538
6.60997
3.29987
1.17923
1.32292
3.52892
6.78102
10.1672
13.5028
17.2636
21.8744
26.9843
31.4937
34.3225
35.463
36.3756
39.2818
45.8086
55.7404
66.9259
76.5318
82.8032
86.216
89.2436
94.7404
104.118
116.435
128.827
138.025
141.944
140.399
134.738
126.909
118.487
110.287
102.539
95.211
88.2599
81.6771
75.5087
69.9584
65.4892
62.5943
61.3138
60.7278
58.9329
53.755
44.0681
30.7494
16.7631
5.9343
1.014
2.20975
7.01446
11.6177
12.995
10.5282
6.12247
2.73262
2.46872
5.25649
9.02138
11.0735
9.77444
5.46364
0.081029
-4.11229
-5.75236
-4.91987
-2.83525
-0.942774
-0.238822
-1.0791
-3.3244
-6.5665
-10.1623
-13.1669
-14.462
-13.2399
-9.55172
-4.53018
0.009134
2.44507
2.1636
-0.12157
-2.84685
-4.50952
-4.41552
-2.94469
-1.16348
-0.185526
-0.557518
-1.97171
-3.49331
-3.96197
-2.57591
0.631526
4.71255
8.1824
9.75352
9.24145
7.91164
8.01752
11.6262
19.3763
29.9153
40.506
48.4016
52.2827
52.8936
52.3854
53.0185
55.9365
60.7386
66.0477
70.4541
73.2532
74.5602
74.9107
74.769
74.5218
74.738
76.3532
80.3622
87.107
95.5197
103.089
106.73
104.23
95.4866
82.7292
69.5469
59.3374
53.9594
53.3825
56.0675
59.735
62.0587
61.0914
55.7107
46.1516
34.3686
23.6243
16.8838
14.8174
14.7058
11.7707
2.89684
-9.29398
-15.0892
-1.12936
42.0168
112.045
191.893
254.476
273.834
237.378
152.606
44.5685
-54.7993
-119.926
-140.847
-124.397
-87.8898
-49.644
-21.5196
-6.50165
-1.10521
0.123693
1.01796
2.64587
4.28164
4.98118
4.49771
3.29275
2.00684
1.11444
0.852523
1.3636
2.73455
4.79669
6.94097
8.32181
8.19606
6.43746
3.68094
1.07654
-0.32401
-0.16542
1.08708
2.49472
3.19818
2.85709
1.75273
0.442297
-0.718445
-1.79447
-3.11135
-0
-5e-006
-1.5e-005
-2.7e-005
-3.4e-005
-3.3e-005
-2.8e-005
-2.8e-005
-4.5e-005
-8.4e-005
-0.000136
-0.000178
-0.000185
-0.000153
-0.000113
-0.000122
-0.000222
-0.000397
-0.000554
-0.000569
-0.000379
-8.5e-005
4e-006
-0.000547
-0.002119
-0.003237
0.011401
0.027345
0.023973
-0.006211
-0.058761
-0.094952
-0.091107
-0.034814
0.041556
0.067989
-0.015408
-0.213685
-0.43412
-0.513996
-0.329332
0.049725
0.348936
0.21719
-0.486731
-1.47596
-1.98381
-1.08294
1.73093
6.05536
10.6313
13.9077
14.969
14.125
12.7331
12.3587
13.7055
16.1196
18.1116
18.4197
16.9321
14.7612
13.3553
13.3978
14.2504
14.4458
12.8505
9.56758
5.94199
3.63029
3.45179
4.91896
6.71247
7.78269
8.10619
8.57415
10.1062
12.6826
15.1526
15.9005
13.9228
9.62391
4.61511
0.880507
-0.285601
1.0935
3.8898
6.57854
8.00594
7.87916
6.7423
5.51481
4.96908
5.3535
6.40783
7.60353
8.57272
9.45672
10.8488
13.3943
17.3402
22.2501
27.2791
31.8365
36.1487
41.2943
48.4294
57.7089
67.6905
75.7482
79.4569
78.1681
73.5852
69.0286
67.536
70.1108
75.1561
79.4079
79.8904
75.635
68.1359
60.3354
54.8289
52.5598
52.6788
53.6911
54.7988
56.4461
59.4966
63.5252
65.6871
61.6517
48.6883
29.5437
14.2789
17.7904
52.9859
122.46
213.458
299.913
352.008
349.114
289.608
192.18
87.7059
5.74956
-37.3181
-42.8158
-25.5249
-4.06992
8.35358
8.32631
0.542667
-7.40896
-10.1098
-6.5644
0.682509
8.02425
12.8673
14.3436
12.9285
9.68613
5.74547
2.13238
-0.361024
-1.33462
-0.925512
0.241051
1.37867
1.95386
1.91866
1.55904
1.16011
0.801741
0.333609
-0.341704
-1.04136
-1.24837
-0.35285
2.05445
5.99354
11.1027
16.86
22.8456
28.8374
34.856
41.0112
47.3652
53.9381
60.7084
67.6298
74.5126
81.0301
86.7132
91.1622
94.3358
96.7457
99.3698
103.228
108.837
115.726
122.367
126.651
126.742
121.907
112.913
101.676
90.4127
80.6177
72.4682
65.0279
57.0178
47.805
37.8692
28.594
21.4632
17.1532
15.1245
13.9544
12.1896
9.24391
5.70402
2.8879
1.96512
3.16192
5.53354
7.42174
7.39773
5.0164
1.07317
-2.74844
-4.69858
-3.81851
-0.403537
4.16817
8.10118
9.91887
9.1197
6.29503
2.82871
0.270647
-0.407355
0.968748
3.82842
7.33963
10.9635
14.7297
19.0099
23.9506
28.9999
32.8658
34.092
31.9702
27.2006
21.8393
18.393
18.4767
21.8935
26.673
30.0965
30.1568
26.5281
20.5783
14.4084
9.70667
7.08528
6.23344
6.636
8.19684
11.2579
16.0761
22.2463
28.5469
33.4685
36.1207
36.7713
36.6733
37.249
39.1238
41.7208
43.681
43.8086
41.8062
38.4321
35.0769
33.04
32.9302
34.6213
37.4886
40.7294
43.608
45.5786
46.5433
47.0455
48.2832
51.6743
57.9795
66.4078
74.4287
78.476
75.5744
64.907
48.4775
30.4327
15.4142
6.51443
4.11199
5.87138
8.05902
7.55197
3.51556
-2.08814
-5.68944
-4.51757
1.00751
6.47059
5.52399
-5.64008
-23.6927
-36.6899
-27.9506
15.496
93.7762
189.861
273.715
313.988
292.108
211.345
96.0489
-18.7212
-101.927
-138.159
-130.92
-97.2292
-57.4215
-26.0115
-7.77453
0.463301
4.73701
9.23099
14.3897
17.899
17.2151
11.6685
2.98963
-5.64562
-11.1868
-12.0047
-8.18661
-1.17027
7.1764
15.2293
21.8096
26.0764
27.4333
25.5731
20.8991
14.7442
9.07098
5.75853
5.65642
8.14623
11.5646
14.3345
16.0013
17.4736
20.27
25.2806
31.989
38.7847
44.0998
47.5368
50.157
53.788
59.7113
67.7016
76.1059
82.7649
86.1849
86.2883
84.2926
82.0329
81.2197
82.8361
86.9682
92.8382
98.9541
103.417
104.454
101.149
94.0532
85.0631
76.5786
70.2818
66.1612
62.4605
56.7552
47.3974
34.5975
20.403
7.70568
-1.11683
-5.15404
-5.09952
-2.65062
0.373694
2.66883
3.78405
4.1078
4.64766
6.62977
10.8654
17.2083
24.4106
30.4239
33.393
32.6918
29.2786
25.2003
22.4087
21.6134
21.9184
21.4834
18.9641
14.5269
9.86277
7.13999
7.63274
10.8439
14.7855
17.2168
17.0084
14.7563
12.276
11.3591
12.5961
15.055
16.8733
16.4806
13.5547
9.2125
5.28533
3.14771
2.90014
3.4582
3.42059
2.17891
0.435963
-0.229029
1.48297
5.58508
10.5575
14.147
14.6426
11.8707
7.34669
3.41569
2.06458
4.08209
8.90148
15.0883
21.0301
25.4516
27.6667
27.6072
25.8303
23.5301
22.2652
23.5242
28.0938
35.615
44.5744
52.8268
58.5084
60.7828
60.1756
58.2456
56.7581
56.8736
58.5381
60.5312
61.1426
59.0546
54.0767
47.3183
40.6641
35.7566
33.0248
31.4502
29.2037
25.0778
19.6756
15.451
15.2197
19.8208
26.4221
29.1559
22.4082
5.5361
-13.9513
-21.4028
-1.08705
54.9522
139.904
231.397
298.653
314.949
269.531
173.06
53.6647
-54.5729
-124.999
-147.391
-128.999
-88.1521
-44.6833
-12.066
5.50951
11.1942
10.9305
9.4837
8.71299
8.22057
7.01879
4.75059
1.95343
-0.488222
-2.04979
-2.69445
-2.67437
-2.09088
-0.69054
1.913
5.82105
10.5847
15.3562
19.2566
21.7899
23.1117
23.9098
25.2243
28.0559
32.9685
39.7803
47.4584
54.428
59.2052
61.0703
60.5443
59.1925
58.824
60.5765
64.327
68.9523
73.1508
76.3859
79.2562
83.0126
88.6211
96.012
104.015
111.008
115.807
118.168
118.606
117.808
116.072
113.124
108.42
101.586
92.7637
82.593
71.9775
61.8052
52.6655
44.6827
37.4801
30.2988
22.424
13.7288
5.07057
-1.8544
-5.21744
-4.13321
0.633204
6.82583
11.7348
13.5199
12.0119
8.44148
4.53529
1.48124
-0.476736
-1.63568
-2.19105
-1.83426
-0.060355
3.17909
7.17197
10.6908
12.7533
13.3115
13.2301
13.5291
14.4775
15.3678
15.1814
13.5901
11.5426
10.8111
12.7406
17.086
21.9255
24.7789
24.2781
21.1735
17.8712
16.7353
18.306
20.6884
20.6725
15.8469
6.40622
-4.57748
-12.712
-14.7787
-10.5287
-2.89509
3.64146
5.49142
1.79931
-5.26543
-11.8393
-14.4753
-11.8349
-5.18401
2.55444
8.48718
11.1264
10.7905
9.05497
7.55477
7.10349
7.56981
8.44001
9.57842
11.4881
14.8619
19.7893
25.3121
29.7493
31.7408
31.2725
29.8541
29.5931
31.767
35.8376
39.6253
40.6264
37.6942
31.9378
26.2492
23.7094
25.873
31.9385
39.2858
44.8643
46.7596
45.1642
42.2309
41.1082
44.3432
52.3541
62.5409
69.7937
68.6988
57.098
39.3212
26.7853
34.3713
73.2244
143.102
228.662
302.885
337.354
314.835
237.924
128.884
20.3796
-58.3212
-92.6768
-86.4785
-56.667
-23.2744
-0.21132
8.76142
7.96414
4.4615
3.17649
5.03949
8.17347
10.3304
10.5733
9.36351
7.5982
5.8273
4.14205
2.62587
1.6519
1.63197
2.50933
3.54498
3.80311
2.98389
1.90966
2.16246
4.87488
9.61576
14.2621
16.1224
13.6317
7.5721
0.883931
-2.94045
-1.77282
4.04656
12.0402
19.1806
23.6707
25.7782
27.3025
30.2105
35.3829
42.0911
48.6729
53.668
56.7108
58.7031
61.1549
65.2147
70.9448
77.3761
83.1917
87.5729
90.6351
93.2696
96.282
99.591
101.952
101.514
96.9098
88.2474
77.3698
67.0255
59.4599
55.2063
52.778
49.4649
42.908
32.4464
19.597
7.42486
-0.818577
-3.19683
0.176706
7.38373
15.6252
22.4011
26.326
27.2859
26.0316
23.7208
21.5617
20.6295
21.7167
25.0849
30.1508
35.3678
38.7249
38.6448
34.8114
28.4901
21.9707
17.2912
15.2484
15.1573
15.5324
15.2239
14.1189
13.1022
13.2283
14.9707
17.8609
20.7998
22.6984
23.0675
22.1043
20.5035
19.1213
18.7372
19.7089
21.706
23.6679
24.1337
22.1053
17.8803
13.325
11.0543
12.957
18.7784
25.9215
30.8246
31.1456
27.2543
22.0379
18.9976
19.8554
23.4099
26.4534
26.0321
21.6711
15.8708
12.46
14.0785
20.3458
28.0857
33.416
34.2068
31.4017
28.166
27.6611
30.9939
36.6803
41.8346
44.264
43.8494
42.365
41.9796
43.5209
45.8813
46.799
44.4824
38.7136
30.9338
23.2279
17.1772
13.2383
11.0612
10.0759
9.8942
10.0439
9.62227
7.54995
3.44226
-1.47369
-4.49775
-3.05125
2.84731
9.25961
9.72493
-0.340725
-18.5416
-33.3182
-27.4289
13.381
90.5566
187.743
274.707
319.342
302.232
226.252
115.782
5.90309
-72.6813
-105.352
-96.4514
-63.2597
-25.6832
2.55534
17.0854
20.6331
18.3604
14.2553
10.1109
6.56001
4.21616
3.83369
5.57861
8.49677
10.9001
11.4522
10.0054
7.56265
5.42009
4.24261
3.89673
3.96036
4.5587
6.41662
10.3329
16.2432
22.826
28.0529
30.3536
29.5943
27.1872
25.3623
25.8771
29.0988
33.8725
38.3274
41.0834
42.1499
42.9918
45.7809
52.2056
62.4381
74.8769
86.8078
95.6519
100.155
100.893
99.9526
99.8473
102.261
107.272
113.356
118.151
119.661
117.154
111.473
104.57
98.4934
94.1901
90.9589
86.7114
79.1129
66.952
51.0887
34.3204
20.1371
10.9752
7.11167
6.66648
6.85629
5.70484
3.09054
0.635989
0.389015
3.36859
8.75707
14.3224
17.6498
17.4288
14.0196
9.03259
4.34089
1.1818
-0.203318
-0.365173
-0.081437
0.102113
0.041959
-0.152121
-0.343136
-0.447716
-0.434473
-0.315772
-0.1077
0.13216
0.270032
0.157688
-0.226263
-0.677873
-0.848986
-0.413849
0.672969
2.08709
3.29102
3.76525
3.31436
2.15109
0.803079
-0.207654
-0.575479
-0.314999
0.297851
0.889783
1.16211
0.986802
0.467745
-0.101897
-0.351655
-0.015841
0.892971
2.01211
2.80372
2.84682
2.07699
0.907739
0
0
0
-3e-006
-2.3e-005
-7.9e-005
-0.000186
-0.000343
-0.000523
-0.000673
-0.00074
-0.000718
-0.000692
-0.000813
-0.001208
-0.001848
-0.002494
-0.00279
-0.002526
-0.001896
-0.00151
-0.002038
-0.003608
-0.005413
-0.006037
-0.004673
-0.00284
-0.005053
-0.004792
0.028675
0.11258
0.21912
0.269979
0.149046
-0.246207
-0.907854
-1.59159
-1.88469
-1.47806
-0.509601
0.308058
-0.013088
-1.98927
-4.91795
-6.91193
-6.01632
-1.96145
2.73314
3.74094
-1.7513
-11.0142
-13.9978
3.77037
53.6922
135.478
232.586
315.684
353.902
328.866
244.107
124.664
6.52986
-78.5285
-115.165
-107.806
-74.6543
-36.7283
-8.33766
6.54225
11.7332
13.2585
14.8174
16.6048
17.1091
15.5955
13.2102
12.1638
13.916
17.957
22.0805
23.7977
21.8917
17.1597
11.9666
8.93991
9.64673
13.901
19.9107
25.0882
27.2112
25.3927
20.4453
14.5353
10.2385
9.40103
12.3746
18.0312
24.535
30.3191
34.7153
37.9671
40.7099
43.4147
46.1963
49.0778
52.3475
56.5691
62.1926
69.0557
76.1877
82.3281
86.7579
89.9419
93.2966
98.2136
104.869
111.835
116.65
117.231
113.158
105.894
97.9148
91.213
86.2156
81.6848
75.6222
66.5372
54.3196
40.2726
26.4285
14.6409
5.92159
0.31907
-2.73756
-3.9264
-3.64653
-1.92642
1.35736
6.0506
11.3924
16.0187
18.4139
17.6795
14.1572
9.50625
6.00806
5.40959
7.94792
12.0889
15.2427
15.1605
11.1734
4.68741
-1.46748
-4.44247
-2.834
2.60001
9.31332
14.2198
15.2244
12.1575
6.75427
1.64118
-1.02868
-0.553026
2.17292
5.4115
7.62516
8.20707
7.47684
6.12307
4.64077
3.15017
1.82648
1.32072
2.68123
6.70848
13.0644
19.9816
24.8595
25.6221
21.984
15.7157
9.6828
6.23565
5.93035
7.45951
8.77482
8.53711
6.93287
5.39398
5.46833
7.7233
11.4298
15.0696
17.2679
17.474
15.9819
13.4681
10.5379
7.66038
5.27597
3.9231
4.0864
5.73262
8.02343
9.52711
9.01437
6.30815
2.62528
0.040872
0.407643
4.31088
10.8344
18.1374
24.4916
28.9394
31.3891
32.1559
31.4066
29.1022
25.3678
20.8191
16.5923
13.7853
12.6379
12.3526
11.5541
9.30387
5.85933
2.65664
1.34609
2.54339
5.23928
7.23685
6.64426
3.28829
-0.902173
-3.13191
-1.9833
0.741455
0.080447
-9.43551
-29.3777
-53.817
-69.1505
-58.7194
-11.0651
72.0406
172.37
259.751
303.312
284.596
206.304
91.8395
-24.2429
-110.519
-150.563
-147.013
-116.706
-80.4194
-53.0807
-39.132
-34.2549
-31.0933
-24.689
-14.8645
-4.8764
1.75973
3.74075
2.35638
0.136671
-1.00053
-0.585951
0.837875
2.60098
4.59541
7.19278
10.5933
14.3457
17.4627
19.0491
18.8678
17.588
16.3168
16.1104
17.5727
20.7383
25.2753
30.6033
35.8871
40.0111
41.8613
40.9643
38.0434
35.0773
34.6245
38.5309
46.84
57.5473
67.5238
74.1702
76.8036
76.992
77.5174
80.7483
87.2233
95.4033
102.658
106.763
107.091
104.729
101.669
99.5963
99.0482
99.3535
99.1704
97.2518
92.8918
86.0386
77.0568
66.5188
54.9903
43.0876
31.5582
21.1826
12.6542
6.39388
2.33021
-0.194921
-2.3694
-5.53173
-10.7112
-18.0669
-26.6484
-34.5227
-39.4898
-40.1072
-36.35
-29.7343
-22.7057
-17.6018
-15.6452
-16.4301
-18.3169
-19.3656
-18.3799
-15.6108
-12.618
-11.3845
-13.0042
-17.0069
-21.4966
-24.1417
-23.5758
-20.2205
-16.0004
-13.0877
-12.5074
-13.5897
-14.4658
-13.4411
-10.1783
-5.92117
-2.61957
-1.67705
-3.03436
-5.3014
-6.7302
-6.22527
-3.80206
-0.34688
3.03665
5.55981
6.90527
7.05885
6.19339
4.74785
3.47171
3.27294
4.69862
7.42638
10.1874
11.3936
10.1872
7.26145
4.60208
4.29086
7.06321
11.5641
15.0348
15.0693
11.4229
6.67833
5.01881
9.88555
21.848
37.9737
53.1989
62.9623
65.6182
63.0793
59.4859
58.7319
62.3269
68.7868
74.8391
77.5825
76.1291
71.8511
67.3339
64.6907
64.4626
65.7228
67.0449
67.5211
67.1367
66.2702
64.9307
62.5077
58.4422
53.2073
48.6537
47.0134
48.9851
52.2232
51.84
43.483
27.5655
11.9606
10.4024
36.293
94.3653
174.892
254.483
304.398
302.762
244.893
146.162
35.7802
-55.4558
-107.341
-116.455
-94.232
-58.9995
-26.8532
-5.99805
3.62792
6.75563
8.29806
10.6261
13.5071
15.6963
16.4505
16.0568
15.3649
15.0333
15.293
16.0968
17.3797
19.1048
21.0467
22.6177
23.1291
22.3698
21.0487
20.6128
22.4268
26.7675
32.3371
36.7847
38.003
35.3511
30.1632
25.2325
23.4584
26.4281
33.6565
42.8991
51.355
56.9987
59.5851
60.6915
62.7896
67.8448
76.2784
86.6216
96.3069
103.095
106.383
107.51
108.895
112.522
118.594
125.332
129.946
130.204
125.608
117.516
108.178
99.3881
91.5711
83.8399
74.7987
63.5256
50.1174
35.6617
21.7566
9.98962
1.53575
-3.11008
-4.23814
-2.84198
-0.357045
1.85027
3.04868
3.33935
3.43852
4.04402
5.22809
6.35334
6.53456
5.34373
3.2186
1.33693
0.959662
2.66435
5.94726
9.48623
11.8797
12.2773
10.7361
8.10345
5.48465
3.72835
3.2245
3.89097
5.32574
6.99464
8.3995
9.13867
8.9457
7.74637
5.71636
3.31365
1.28897
0.524164
1.73339
5.08583
9.98163
15.0596
18.6381
19.4742
17.4664
13.8313
10.4976
9.0845
9.87837
11.6673
12.4869
10.8604
6.71082
1.38204
-3.22809
-5.79769
-6.17712
-5.19313
-3.84047
-2.63557
-1.55319
-0.430921
0.623257
1.24664
1.25317
1.01015
1.38241
3.11483
6.15538
9.59055
12.3591
14.1866
15.9833
19.2255
24.6178
31.0954
36.0119
36.5796
31.7306
23.0574
14.1772
8.68146
8.06635
10.9655
14.1084
14.3706
10.6464
4.24016
-2.25497
-6.82718
-9.25982
-10.8683
-13.0689
-15.8938
-17.7862
-16.9911
-13.757
-11.4175
-14.9587
-27.2736
-45.0494
-57.3564
-49.1239
-8.73357
63.9103
153.592
233.424
275.118
261.275
193.435
91.8144
-13.2622
-93.7054
-133.896
-134.299
-107.853
-72.0298
-41.0382
-21.639
-13.3516
-11.5769
-11.3048
-9.54008
-5.83656
-1.4417
2.08278
3.8817
4.16785
3.91292
4.1828
5.48652
7.4983
9.35887
10.3238
10.2163
9.48404
8.78611
8.44924
8.35679
8.23573
8.15897
8.75203
10.9203
15.1841
21.1272
27.4888
32.8211
36.3103
38.2481
39.7528
42.0785
46.0222
51.6337
58.4216
65.7409
73.0238
79.7976
85.5842
89.9389
92.7848
94.6667
96.6864
100.034
105.224
111.627
117.662
121.646
122.826
121.817
120.18
119.315
119.388
118.998
115.943
108.564
96.8474
82.5973
68.6185
57.255
49.336
43.9421
39.1664
33.2864
25.7226
17.2106
9.27816
3.42344
0.348972
-0.277561
0.393691
1.07354
0.917424
-0.044544
-0.963812
-0.674623
1.55373
5.49004
9.80891
12.6836
12.7224
9.77496
5.21318
1.33402
0.222164
2.71123
7.95602
13.8374
18.0171
18.9471
16.5763
12.1673
7.59259
4.48414
3.59138
4.71094
7.01616
9.6677
12.2007
14.5075
16.5607
18.0666
18.4332
17.0825
13.934
9.67451
5.57463
2.9049
2.38369
3.78157
6.18965
8.48054
9.83788
9.90991
8.68912
6.32847
3.0322
-0.779795
-4.33556
-6.72238
-7.33536
-6.22369
-4.19857
-2.46336
-1.97892
-2.96026
-4.86612
-6.81968
-8.35822
-9.69903
-11.5402
-14.3979
-17.8375
-20.2529
-19.4949
-14.0466
-4.17052
7.76447
18.2129
24.1335
24.6974
21.7764
18.8936
19.1741
23.5071
30.1163
35.6922
37.5939
35.4209
31.04
26.9942
24.5422
22.7762
19.4132
12.6847
2.92398
-7.27426
-14.6107
-17.1965
-15.9156
-13.799
-13.8962
-16.9922
-20.8638
-21.8521
-17.8719
-10.9576
-7.12432
-12.7966
-29.4511
-49.6653
-57.725
-36.0962
24.8504
118.848
222.636
303.656
333.694
301.732
219.372
115.663
23.9663
-32.2827
-47.7643
-34.0055
-10.4492
6.38013
9.79059
3.13302
-5.35018
-8.81698
-5.54687
1.41302
7.38912
9.38797
7.50874
4.02044
1.42193
0.850069
1.8395
3.05669
3.40217
2.6517
1.35242
0.284032
-0.120985
0.026252
0.297956
0.318724
0.005823
-0.406148
-0.569704
-0.301753
0.223972
0.592547
0.461542
-0.184992
-0.908078
-1.09258
-0.378376
0.965241
2.09429
2.01908
0.419167
-1.88664
-3.04924
-1.02645
5.21856
14.9191
25.6306
34.3365
39.0675
40.0224
39.4972
40.5926
45.4659
54.1489
64.6499
74.2609
81.1119
84.991
86.9298
88.0347
88.399
87.0484
82.8767
75.8219
67.3444
59.7856
54.997
53.1444
52.6318
51.1963
47.3945
41.525
35.4457
31.4157
30.8321
33.5396
38.119
42.7458
45.9584
46.9671
45.4625
41.3932
34.9834
26.9558
18.7765
12.3867
9.4937
10.7448
15.1959
20.591
24.3619
24.7282
21.3539
15.3946
8.7781
3.35863
0.324252
-0.003263
1.9891
5.47489
9.33927
12.3839
13.638
12.7816
10.4148
7.96718
7.02763
8.42398
11.6992
15.3823
17.8923
18.5854
18.099
17.7685
18.5112
20.112
21.3847
21.0728
18.8342
15.6018
12.9041
11.7689
12.0613
12.7214
12.6905
11.7642
10.7663
10.862
12.5455
15.0841
16.8928
16.5662
13.8574
10.0069
7.15864
7.20962
10.771
16.8329
23.095
27.0381
27.0303
23.0435
16.6301
10.2964
6.38622
6.14364
9.33964
14.556
19.9362
24.0094
26.1537
26.6361
26.3233
26.384
28.0522
32.3947
39.989
50.5559
62.8288
74.8162
84.4672
90.5007
92.74
91.8366
88.5926
83.4207
76.3654
67.5297
57.6673
48.3877
41.6512
38.9121
40.3817
44.7552
49.7322
53.0955
53.8587
52.8403
52.1935
53.8406
57.5959
60.2948
57.0522
44.9579
27.2875
15.265
24.8407
68.7564
147.274
-2e-006
-2.1e-005
-6.7e-005
-0.00013
-0.000189
-0.000216
-0.000208
-0.000204
-0.000271
-0.000458
-0.000741
-0.001008
-0.001127
-0.001053
-0.000913
-0.000969
-0.001434
-0.002267
-0.003088
-0.003352
-0.002745
-0.001615
-0.001174
-0.003301
-0.010002
-0.016269
0.039486
0.115639
0.141451
0.046715
-0.191408
-0.453408
-0.560495
-0.376398
0.010064
0.256403
-0.037777
-0.97546
-2.13734
-2.72204
-2.11856
-0.529013
0.851734
0.4564
-2.4632
-6.81431
-9.52031
-6.67182
4.47469
23.7679
47.7798
71.1457
88.9481
98.8829
101.962
101.482
100.953
102.319
105.36
108.472
110.091
109.768
108.299
106.981
106.647
107.128
107.276
105.562
100.771
92.4016
80.8564
67.3243
53.4971
41.0979
31.3921
24.7477
20.6129
17.714
14.7789
11.2413
7.5515
5.03724
5.23035
9.08527
16.32
25.2547
33.289
37.7535
36.9169
30.7753
21.2316
11.5181
4.99854
3.8231
8.04513
15.6631
23.6753
29.56
32.4321
33.2236
33.8057
35.6951
39.0487
42.6321
44.5795
43.6313
39.9869
35.2841
31.7455
31.0123
33.2866
37.2317
40.6891
41.8138
39.9427
35.8568
31.195
27.57
25.8055
25.6425
26.147
26.3396
25.7675
24.5764
23.2077
21.9225
20.6121
18.9207
16.5786
13.7536
11.0747
9.37021
9.23112
10.6886
13.1017
15.397
16.5254
15.9389
13.9399
11.5323
9.94277
10.0027
11.6848
14.1156
16.0866
16.8196
16.4756
16.0595
16.7977
19.3124
23.067
26.5822
28.2543
27.3647
24.548
21.5953
20.6406
23.1131
29.0869
37.2885
45.7003
52.3732
56.0945
56.7378
55.0199
52.0463
48.8089
45.8108
42.9711
39.8067
35.8218
30.7989
25.0835
19.5389
15.1444
12.4229
11.0134
9.61899
6.73481
1.78627
-3.94806
-7.62
-6.54429
-0.626027
6.23586
7.35857
-2.68173
-22.9797
-43.5841
-48.0855
-21.3824
40.9308
126.801
209.86
259.546
254.605
193.051
93.3718
-13.7058
-98.3388
-143.003
-146.942
-122.61
-87.3083
-55.0866
-32.6376
-19.9368
-13.6612
-10.5448
-8.92219
-8.32713
-8.43921
-8.44841
-7.2899
-4.44451
-0.404872
3.49022
5.71911
5.38782
2.66575
-1.27724
-4.79067
-6.49462
-5.86719
-3.38475
-0.189582
2.63653
4.50562
5.58183
6.42604
7.47004
8.66149
9.59465
9.96732
10.0693
10.7466
12.9048
16.9702
22.6054
28.9098
35.0278
40.6675
46.1516
51.9572
58.187
64.4748
70.2424
75.2895
80.0194
85.1992
91.2135
97.5056
102.675
105.322
104.999
102.666
100.202
99.2255
100.011
101.235
100.783
96.985
89.6747
80.2736
70.8328
62.8569
56.5338
50.8478
44.4459
36.6388
27.8895
19.6471
13.5468
10.5433
10.4335
11.9128
13.2864
13.1898
11.2356
8.17708
5.43899
4.36001
5.50659
8.41058
11.8958
14.7167
16.1196
16.1411
15.4229
14.6489
14.2439
14.2572
14.6008
15.1773
15.9092
16.6495
16.9562
16.2684
14.2783
11.4308
8.92297
8.25938
10.4304
15.2445
21.1791
26.0281
27.9683
26.5557
22.9805
19.4978
18.2813
20.2266
24.4931
28.9327
31.1581
29.7644
25.0478
18.7854
13.3349
10.5032
10.7325
13.0591
15.7936
17.4839
17.592
16.6486
15.8645
16.3648
18.5061
21.6705
24.5822
25.9305
25.1632
22.9094
20.7786
20.5145
22.9888
27.5899
32.4698
35.4703
35.315
32.3082
28.1879
25.1639
24.9058
27.9086
33.5596
40.7106
48.1627
54.8944
59.9279
62.3292
61.4619
57.4276
51.3267
44.9232
39.7837
36.4673
34.3107
31.8997
27.9477
22.0116
14.5183
6.36182
-1.47469
-8.05058
-12.3912
-13.8594
-12.9205
-11.8371
-14.2478
-22.8744
-36.0965
-45.6751
-38.1742
-0.879071
70.0527
163.664
254.771
312.566
313.782
253.788
149.713
33.4364
-62.0698
-116.036
-126.154
-105.58
-73.4608
-44.945
-26.0302
-14.7469
-6.26687
2.29732
10.2999
15.27
15.7836
12.9417
9.493
7.7775
8.14792
9.24029
9.40793
8.00628
5.65073
3.30746
1.31998
-0.671791
-2.87656
-4.47056
-3.6488
1.31801
10.5581
22.087
32.7632
40.0812
43.6784
45.3673
47.7514
52.4392
59.0549
65.7204
70.4809
72.7755
73.745
75.2428
78.5111
83.317
88.1037
91.2378
92.2488
92.2979
93.6252
98.2335
106.598
117.11
126.698
132.303
132.399
127.764
121.146
115.84
114.046
115.875
119.387
121.609
119.973
113.38
102.492
89.2518
75.9386
64.4018
55.6206
49.6656
45.9547
43.4918
41.075
37.5419
32.0248
24.3487
15.3314
6.77853
0.885868
-0.715978
2.15235
7.94376
14.0203
17.9293
18.6905
17.3527
16.2772
17.7418
22.499
29.4243
36.2692
40.9757
42.8278
42.4705
41.0503
39.2477
36.7856
32.8949
27.2899
20.8163
15.2761
12.508
13.3081
16.8996
21.3132
24.2379
24.1159
20.7371
15.2253
9.43952
5.25407
3.80175
5.04773
7.83577
10.4843
11.5974
10.8309
9.06842
7.87321
8.46094
10.7487
13.1408
13.2555
9.31707
1.34645
-8.59498
-17.4386
-22.6913
-23.7267
-22.0035
-20.0567
-19.8844
-21.8427
-24.7241
-26.7816
-26.9315
-25.4249
-23.3621
-21.6542
-20.1489
-17.6366
-12.8341
-5.51797
2.96717
10.3339
14.7263
15.9077
15.5585
16.3617
20.3355
27.5462
35.9882
42.6883
45.5143
44.2418
40.2921
36.2301
34.2266
35.0236
37.6116
39.7298
38.8318
33.303
23.7359
13.4795
7.68391
10.5418
21.8677
35.3137
40.4443
28.8685
1.30213
-29.3198
-42.2544
-20.024
39.6914
119.009
186.474
213.237
190.096
134.907
84.8646
76.873
126.697
218.878
313.523
366.075
349.269
265.384
143.244
22.9462
-62.4912
-99.0553
-92.7598
-61.6574
-25.0937
3.96994
21.0305
27.5316
26.9729
22.3545
15.7113
8.71942
3.36536
1.32653
2.73159
6.16385
9.16322
9.60748
6.94252
2.49228
-1.38449
-2.70271
-0.875529
3.1707
7.76614
11.4874
13.7968
15.026
15.8853
17.0021
18.7278
21.2074
24.613
29.0442
34.342
39.8445
44.4553
47.1452
47.6799
47.0844
47.3229
50.4022
57.2353
66.9669
77.2979
85.6227
90.3819
91.8126
91.6717
92.1185
94.4725
98.5533
102.899
105.82
106.431
105.113
103.261
102.428
103.466
106.138
109.353
111.692
111.967
109.466
103.892
95.2268
83.7271
70.0484
55.3087
40.9418
28.4074
18.6991
12.0615
8.04656
5.87623
4.83017
4.37106
4.09796
3.63159
2.64563
1.09278
-0.708798
-2.03011
-2.13576
-0.729596
1.80241
4.56481
6.60859
7.39677
7.11853
6.44605
6.07947
6.34284
7.04399
7.59716
7.4155
6.30634
4.6219
3.05618
2.27235
2.5683
3.71673
5.05558
5.9072
6.00113
5.59777
5.27717
5.53633
6.45357
7.64704
8.57455
8.93516
8.89842
8.93767
9.41824
10.216
10.7205
10.2362
8.56688
6.25708
4.48356
4.39119
6.43223
10.0343
13.8759
16.5319
17.1235
15.7164
13.1244
10.4635
8.58729
7.73446
7.54253
7.41692
6.86718
5.78946
4.5224
3.57696
3.25915
3.45254
3.51784
2.49144
-0.423068
-5.3309
-11.305
-16.5502
-19.0482
-17.4989
-12.1608
-4.98163
1.19416
3.97442
2.63694
-1.44395
-5.41622
-6.37215
-2.8033
4.8117
14.3254
23.0234
28.7938
30.648
28.6541
23.473
15.9587
7.12874
-1.78174
-9.35877
-14.3245
-16.0607
-14.9389
-12.3007
-9.89532
-9.11098
-10.3099
-12.6815
-14.9547
-16.4862
-18.2955
-22.9612
-33.0054
-48.0719
-62.4828
-65.1523
-43.364
10.4616
92.194
183.627
256.973
285.396
254.865
171.396
59.4698
-47.9891
-123.051
-153.11
-143.318
-110.826
-74.8833
-48.3297
-34.3838
-28.9321
-25.7224
-20.846
-14.1884
-8.07652
-4.80217
-4.80254
-6.56165
-7.67049
-6.18773
-1.52737
5.43694
12.8184
18.4554
20.716
19.0863
14.3566
8.25921
2.84746
-0.284436
-0.559243
1.54716
4.83461
7.89413
9.64621
9.53308
7.66491
4.77027
1.95877
0.294651
0.275954
1.60436
3.45398
5.0689
6.44001
8.47875
12.4671
19.1097
27.8146
36.7969
43.9988
48.2582
49.8957
50.4566
51.7442
54.8152
59.4908
64.651
68.9111
71.1718
70.9036
68.1024
63.2273
57.2172
51.4436
47.4288
46.2796
48.0783
51.6641
54.9636
55.8383
52.9928
46.4169
37.3132
27.5646
19.1703
13.7189
11.99
13.845
18.2248
23.3715
27.3906
29.0075
28.0673
25.5724
22.981
21.2212
20.112
18.5098
15.2424
10.184
4.75054
1.40563
2.21475
7.54115
15.6358
23.3952
28.0199
28.4538
25.7871
22.3835
20.3417
20.2704
21.1909
21.5132
20.3516
18.2624
16.7811
17.2545
19.7088
22.7055
24.1792
22.8214
18.9684
14.3982
11.1875
10.41
11.5466
12.9794
13.226
11.8811
9.82999
8.52273
8.93507
10.9327
13.5348
15.643
16.7033
16.8667
16.6761
16.584
16.6987
16.9379
17.2566
17.74
18.4248
19.0452
19.1623
18.4355
16.9571
15.2667
13.8887
12.9272
11.9377
10.3773
8.2783
6.48011
6.1689
7.95157
11.0897
13.6986
13.9542
11.4462
7.76758
5.81135
8.06169
15.1679
25.4805
35.9919
43.9953
48.2865
49.2932
48.2478
46.1771
43.3626
39.615
34.9491
30.0114
25.9223
23.7418
23.7735
25.3063
26.8233
26.599
23.4866
17.7169
11.25
7.15552
8.04108
13.9965
21.3991
23.8972
16.1106
-1.4823
-19.6088
-22.1461
6.51323
71.7585
162.108
250.508
304.359
300.002
234.318
127.05
12.3971
-75.8513
-117.975
-114.212
-80.8645
-40.0432
-9.10985
5.11175
5.61212
0.104973
-4.52071
-5.26696
-2.86568
0.381132
2.6374
3.52838
3.75362
4.15211
4.9876
5.82589
5.89433
4.65347
2.27195
-0.296368
-1.6777
-0.775796
2.51641
7.03603
10.7701
11.8643
9.66865
5.26076
1.0198
-0.639891
1.3742
6.14283
11.1677
13.6933
12.1868
7.22459
0
-0
-2e-006
-8e-006
-1.7e-005
-2.5e-005
-2.4e-005
-1.3e-005
-0
-4e-006
-3.8e-005
-9.4e-005
-0.000137
-0.000129
-6.3e-005
1.8e-005
3e-005
-8.4e-005
-0.000293
-0.000463
-0.000435
-0.000155
0.000229
0.000378
-7.9e-005
-0.001346
-0.002639
0.003219
0.01447
0.026328
0.01009
-0.034527
-0.088554
-0.10758
-0.043255
0.086868
0.168507
0.089528
-0.164576
-0.452536
-0.536893
-0.243699
0.321024
0.733579
0.530965
-0.411432
-1.6027
-2.09382
-1.02784
1.70771
5.23623
8.06972
8.96071
7.73863
5.47329
3.81163
3.93632
5.78162
8.10162
9.35748
8.79564
6.99515
5.46586
5.55279
7.44558
9.95909
11.3037
10.2847
7.16821
3.60278
1.59923
2.31676
5.32636
8.86167
10.9001
10.3166
7.42232
3.69583
0.836971
-0.107147
0.888093
3.13511
5.73264
7.88195
8.88941
8.09058
5.02343
0.095608
-4.86169
-6.72948
-2.32325
9.8378
28.0702
47.5657
62.1607
66.9736
60.6019
45.6343
27.2744
10.9286
0.119202
-4.31582
-3.75795
-0.584101
2.9381
5.2276
5.59127
4.18605
1.92503
0.188366
0.239473
2.61036
6.86893
11.8957
16.6707
20.9905
25.5121
31.0768
37.7726
44.517
49.4101
50.85
48.5717
43.9221
39.2852
36.9326
37.9999
42.104
47.5833
52.2421
54.2729
53.1224
49.9473
47.282
47.762
52.2788
58.6056
61.8712
57.5066
45.5434
33.5373
35.4775
65.6759
130.11
219.9
311.475
374.767
386.065
339.055
248.073
141.683
50.0402
-7.42436
-27.8241
-22.1492
-6.86839
4.92821
8.21586
5.19087
0.940083
-0.954224
-0.166284
1.41738
1.89225
0.834962
-0.739882
-1.5761
-1.23786
-0.303594
0.375164
0.481558
0.481266
1.20333
3.08474
5.73077
8.08295
9.10531
8.42975
6.5775
4.60386
3.44231
3.3845
3.99446
4.43564
4.01994
2.59924
0.646403
-1.0753
-1.90288
-1.57169
-0.315664
1.29173
2.62365
3.22506
2.96275
2.12682
1.37605
1.66774
4.01551
9.13594
17.1507
27.3396
38.1563
47.7042
54.4963
58.1683
59.7729
61.3566
64.8359
70.7792
77.7211
82.6919
82.7087
76.5326
65.5827
53.3799
43.7509
38.7911
37.8324
37.9746
35.939
29.9403
20.6455
10.6017
2.65166
-1.60187
-2.36911
-1.15563
0.373274
1.30382
1.68123
2.08012
3.11648
5.16988
8.46699
13.1399
19.025
25.2624
30.2273
32.0279
29.5366
23.3195
15.709
9.8011
7.72765
9.50167
13.0474
15.5818
15.3472
12.5602
9.09769
7.04907
7.38354
9.52482
12.0376
13.7795
14.6127
15.2095
16.2338
17.7074
19.0218
19.5365
19.1385
18.3346
17.7024
17.2165
16.2167
13.9519
10.4437
6.7368
4.38012
4.39264
6.57186
9.57902
11.9444
13.0978
13.7536
15.2372
18.1905
21.7168
23.6839
22.0294
16.3964
8.87295
3.27833
3.16605
9.79936
21.2188
33.1165
40.9357
42.1792
37.6163
30.8351
26.5461
28.466
37.8022
52.9245
70.1187
84.9442
93.7605
94.8967
89.1842
79.6874
70.4314
64.6239
63.1156
63.9918
63.7764
59.7249
51.8806
43.4618
39.0194
41.4105
49.595
59.0245
64.4838
63.8442
59.7194
57.6404
61.6058
70.1731
76.5464
73.5676
60.82
48.9331
56.6919
101.04
184.934
290.556
383.331
426.15
397.02
300.557
166.831
37.9124
-50.7754
-84.4819
-71.9091
-36.6814
-3.52117
13.0578
12.1962
2.36159
-6.47131
-8.83485
-5.29366
0.14922
3.91068
4.99393
4.74439
4.94521
6.21553
7.72933
8.11379
6.66082
3.87785
1.10549
-0.347974
0.007088
1.58142
3.13075
3.44131
2.12275
-0.082274
-1.41748
0.142162
5.90963
15.6506
27.3658
37.9345
44.4841
45.7906
43.02
39.356
38.6569
43.6945
54.9074
70.2052
85.9374
98.5507
105.943
108.192
107.278
105.984
106.551
109.813
115.078
120.694
125.065
127.479
128.358
128.793
129.625
130.636
130.461
127.154
119.352
107.288
92.923
79.141
68.2984
60.9934
55.8485
50.4624
42.9691
33.3336
23.3772
15.746
12.3185
13.0082
15.7997
17.8331
16.9751
12.8566
7.00868
1.98036
0.041009
2.14106
7.62624
14.6103
20.8066
24.474
25.0875
23.5141
21.6432
21.4842
24.2105
29.4818
35.4192
39.4821
39.68
35.6117
28.7929
21.9204
17.4066
16.1893
17.298
18.5375
17.8298
14.5601
9.90917
6.21678
5.65414
8.84582
14.4569
19.756
22.0076
19.8839
14.189
7.47337
2.71979
1.89549
5.02154
10.327
15.3229
18.1645
18.4111
16.9941
15.4039
14.7172
15.0819
15.8907
16.4346
16.4405
16.2795
16.6557
18.1881
21.0733
25.2276
30.5858
37.1638
44.9568
53.5623
61.8974
68.2327
70.5386
67.1662
57.5863
42.853
25.6322
9.68515
-1.20681
-4.6188
-0.642208
7.79546
15.812
18.5423
13.6441
2.79827
-8.54981
-13.8535
-9.2306
3.49172
16.5056
19.5809
6.38872
-19.5785
-43.3372
-43.1581
-0.892431
86.6437
201.674
309.069
369.489
356.399
268.723
132.441
-10.0296
-117.565
-166.358
-156.886
-109.4
-51.584
-5.6155
19.1437
25.606
22.8829
19.2645
18.3361
19.2498
19.4953
17.6962
14.5094
11.7733
11.002
12.3588
14.7274
16.5877
16.9944
16.0331
14.7484
14.5759
16.5617
20.649
25.4365
28.4797
27.3625
21.1691
11.4865
2.27024
-1.83143
2.11804
13.4039
27.5669
38.3968
41.2294
35.6199
25.807
18.5438
19.4717
30.0597
46.9292
63.8297
75.186
78.9818
77.4072
75.0871
76.2591
82.3905
91.7397
100.794
106.614
108.567
108.402
108.794
111.231
114.631
115.66
110.713
98.4575
81.3437
65.1119
56.0943
57.8171
68.7122
82.3598
90.3803
86.4805
69.5767
44.2446
18.3726
-0.677238
-9.24088
-8.31649
-2.14178
4.44086
8.336
8.95563
7.52025
5.70673
4.56077
4.25042
4.40937
4.6024
4.54304
4.03443
2.92979
1.28018
-0.434664
-1.25159
-0.079852
3.66635
9.48533
15.7931
20.6654
22.7679
21.987
19.5038
16.9207
15.3231
14.6885
14.121
12.6902
10.2081
7.40836
5.42683
4.8922
5.49124
6.16229
5.90915
4.50647
2.67443
1.42983
1.29868
1.93583
2.46384
2.37008
2.1308
3.12254
6.74145
13.2914
21.5329
29.323
34.9945
38.5561
41.7146
46.6701
54.341
63.2554
70.0662
71.378
65.7838
54.7156
41.6467
30.1729
22.1556
17.2408
13.8194
10.5643
7.29144
4.62392
2.84304
1.10031
-2.12168
-7.53612
-13.7843
-17.7751
-16.9063
-11.9065
-7.77845
-11.2525
-25.4243
-44.6647
-53.9177
-34.5831
24.9747
119.539
224.3
302.308
319.825
262.267
142.361
-4.19105
-133.555
-211.845
-227.457
-192.349
-132.85
-75.8464
-37.7339
-20.7975
-17.0601
-15.82
-10.1483
0.604152
12.3911
20.0827
20.7464
14.974
6.25275
-0.848503
-2.67423
2.02351
11.7194
22.8588
31.4165
34.5569
31.8908
25.5722
19.2569
16.4403
18.8609
25.7761
34.428
41.2969
43.6457
40.6978
33.8626
26.0235
20.1497
17.8619
18.7352
20.7217
21.4831
19.9529
17.1758
15.7811
18.4804
26.3189
37.9306
50.179
59.8133
65.1249
66.6402
66.4536
66.9435
69.6114
74.8051
82.1798
91.1937
101.111
110.632
117.663
119.783
115.401
104.787
90.1786
74.7245
60.8734
49.2902
39.0047
28.6912
17.9458
7.77191
-0.110875
-4.48107
-5.53004
-4.59814
-3.18904
-1.96979
-0.554726
1.82373
5.39669
9.47138
12.7856
14.325
13.9816
12.4396
10.6177
9.14128
8.12021
7.44818
7.16194
7.45318
8.39763
9.67732
10.5058
10.1261
8.26907
5.44515
2.63972
0.626375
-0.441238
-0.947632
-1.31081
-1.5337
-1.15144
0.319228
2.7416
5.194
6.45826
5.90432
4.0331
2.08676
1.01637
0.50322
-1.02698
-5.02701
-10.8856
-14.8953
-11.3976
4.20238
32.1108
66.7863
98.7085
118.671
122.2
111.587
94.176
78.124
68.2113
64.1174
61.8457
57.0886
48.0796
36.2757
24.8369
16.3047
11.1984
8.32227
6.0201
3.36656
0.451332
-2.04951
-3.34208
-2.73962
-0.061539
3.88227
6.66272
4.59113
-5.12892
-21.0404
-34.9229
-32.8304
-0.901578
65.9916
157.633
248.572
306.567
306.22
241.104
127.902
0.091425
-105.762
-164.284
-169.421
-133.532
-79.0249
-27.768
6.69637
21.3682
21.0708
13.5214
5.09784
-1.15343
-5.07229
-7.71663
-9.70265
-10.6293
-9.50864
-5.77785
-0.161204
5.3741
8.68407
8.90866
7.33435
6.87741
10.4303
18.9041
30.3926
40.9769
46.8114
46.1323
40.1642
32.3532
26.4459
24.663
27.0662
32.0881
37.797
42.9405
47.2203
50.893
54.207
57.1675
59.646
61.66
63.5398
65.8309
69.0627
73.4984
79.0476
85.228
91.241
96.1467
99.1215
99.714
98.094
94.9288
91.0016
86.7974
82.3163
77.241
71.3446
64.6953
57.6088
50.2282
42.3141
33.4019
23.4475
13.4181
5.28196
1.23028
2.42224
8.07437
15.4826
21.1055
22.1858
18.0146
10.187
1.91024
-3.42559
-3.7468
0.875616
8.36146
15.5329
19.5678
19.2517
15.3685
10.1978
6.24642
4.86991
5.65372
6.86307
6.76734
4.93507
2.58111
1.84469
4.28622
9.69378
16.038
20.603
21.6163
19.4178
16.3252
15.2041
17.7293
23.3415
29.6341
33.8818
34.6948
32.747
30.1448
28.9771
29.9984
32.4006
34.6166
35.515
35.126
34.4436
34.5777
36.1018
39.0509
43.4534
49.7992
58.7519
70.2726
82.6976
92.6307
96.0782
90.3773
75.7986
55.7052
35.2629
19.2006
9.86626
6.56073
6.38671
6.12386
4.07533
0.961835
-0.749092
1.06689
5.94607
9.79205
6.32048
-8.96079
-34.0167
-57.8771
-63.0506
-33.068
37.7218
137.383
237.515
303.106
307.495
245.022
134.55
11.7941
-85.9693
-135.123
-133.29
-96.3329
-47.6393
-6.38176
19.2065
31.0694
35.4417
36.8652
35.767
-2e-006
-2.3e-005
-6.9e-005
-0.000126
-0.000158
-0.00014
-7.4e-005
-2.2e-005
-6.9e-005
-0.000258
-0.000521
-0.000693
-0.000613
-0.000281
7e-005
8.6e-005
-0.00044
-0.001324
-0.00197
-0.001711
-0.000358
0.001359
0.001786
-0.001097
-0.008794
-0.014521
0.049543
0.131246
0.134072
-0.019102
-0.303989
-0.564674
-0.552361
-0.147169
0.446485
0.721843
0.222963
-1.0181
-2.25203
-2.40113
-0.900521
1.57537
3.1903
2.04815
-2.18119
-7.25434
-8.90332
-2.97489
11.8365
32.4218
52.1171
63.6654
62.7442
50.1805
31.3568
13.3282
1.42186
-2.85513
-1.57367
1.63385
3.81459
3.90421
2.43504
0.513293
-1.02838
-1.76101
-1.32385
0.727545
4.61572
9.81491
14.9225
18.1941
18.6291
16.7971
14.7552
14.9684
18.941
25.9672
33.2964
37.3917
35.7551
28.324
17.7395
8.27344
3.85922
6.27765
14.3003
24.229
31.6173
33.2793
28.6206
19.6995
10.0732
3.07436
0.430161
1.89096
5.85978
10.5562
14.87
18.5825
21.989
25.2269
27.8612
29.0501
27.9826
24.3907
18.8285
12.5117
6.85459
2.88725
0.822165
0.149417
0.015978
-0.198404
-0.541091
-0.516635
0.410357
2.19047
3.81118
3.49292
-0.25936
-7.51257
-16.2411
-22.9349
-24.5761
-21.086
-16.503
-17.4943
-28.987
-48.8841
-65.4923
-60.4894
-17.763
65.8623
174.076
273.809
327.555
310.147
221.287
87.0488
-50.96
-153.314
-198.261
-187.598
-141.394
-85.5625
-39.8836
-12.1491
0.315333
4.76822
7.31002
10.2694
13.0727
14.4949
14.3011
13.3411
12.6638
12.7908
13.7322
15.4308
18.1291
22.2606
27.8748
34.2373
39.8188
42.9748
42.7446
39.3603
34.1382
28.6739
24.0666
20.5311
17.6657
15.1794
13.5765
14.2021
18.5536
27.2519
39.2598
52.1494
63.1485
70.577
74.5624
76.7897
79.4581
84.1034
90.9851
99.4225
108.461
117.408
125.878
133.48
139.532
143.24
144.065
142.156
138.353
133.764
129.19
124.698
119.715
113.241
104.291
92.2866
77.3385
60.3936
43.1654
27.768
16.0772
9.02102
6.25008
6.28815
7.16698
7.26662
5.85665
3.29582
0.741136
-0.432206
0.788499
4.58464
10.1455
15.9454
20.3617
22.396
22.1134
20.5692
19.2511
19.2576
20.7436
22.9205
24.6012
24.9009
23.6512
21.2837
18.4187
15.3906
12.157
8.60483
4.88644
1.47638
-1.02332
-2.21272
-2.11927
-1.09389
0.52684
2.6642
5.51397
9.33065
14.1396
19.5361
24.8199
29.2483
32.352
34.26
35.6818
37.6904
41.1866
46.2902
51.9763
56.2644
56.992
52.7692
43.7446
31.6486
19.0961
8.59799
1.79607
-0.825398
0.198414
3.67357
7.96993
11.3118
12.3181
10.79
8.08858
6.50674
7.61841
10.3828
10.7913
4.15228
-10.3707
-25.8115
-27.4292
1.40137
69.3773
168.558
272.803
345.936
356.847
294.313
173.549
30.6064
-92.7634
-166.122
-180.885
-150.002
-98.3156
-49.7806
-18.2463
-5.31964
-4.43114
-7.21092
-8.2417
-6.3258
-3.0005
-0.202605
1.22106
1.68326
2.17337
3.47582
5.81125
8.89604
12.2873
15.8282
19.9146
25.3538
32.9063
42.5363
52.9076
61.8346
67.4437
69.4648
69.6446
71.0239
76.1448
85.4502
96.9799
107.658
115.201
119.384
121.849
124.74
129.137
134.489
139.331
142.617
144.578
146.402
149.095
152.534
155.409
156.073
153.64
148.443
141.566
133.921
125.72
116.711
106.84
96.6907
87.2525
79.1307
71.9146
64.2591
54.7503
42.9097
29.6428
16.9043
6.68225
0.111958
-2.84875
-3.09354
-1.71725
0.446028
2.9264
5.42818
7.79136
10.0193
12.1267
14.1159
15.9676
17.7346
19.6775
22.5215
27.1237
33.91
42.149
49.8262
54.3351
53.764
48.0288
39.1252
30.1276
23.5801
20.1837
18.622
16.616
12.2518
4.93891
-4.63899
-15.1491
-25.3034
-34.0889
-40.5726
-43.7884
-43.0139
-38.2168
-30.3871
-21.247
-12.4194
-4.5591
2.98399
11.7788
23.4256
38.6286
56.7472
75.9372
93.8
108.116
117.471
121.664
121.687
119.418
116.868
115.286
114.676
114.017
112.18
108.872
105.029
102.234
101.437
102.045
102.319
100.784
97.8255
95.8525
97.3906
102.185
105.642
100.791
83.6515
58.9567
42.0185
53.5638
108.651
205.356
320.096
414.19
449.699
407.132
295.655
149.849
14.5654
-74.4313
-104.025
-85.4117
-44.4964
-7.38762
10.9702
10.0386
-0.862941
-10.5017
-12.0511
-5.07451
6.40433
17.3077
24.1304
25.7674
22.9447
17.4348
11.3712
6.7823
5.08098
6.48235
9.87777
13.2953
14.837
13.6167
10.1402
5.88966
2.40319
0.46517
-0.101755
-0.041982
0.053797
0.234079
1.13084
3.37082
6.97783
11.0817
14.3271
15.6197
14.9818
13.7613
14.167
18.2524
26.9852
39.8268
54.9102
69.6821
81.8377
90.0158
94.107
95.1429
94.9773
95.5858
98.3307
103.512
110.334
117.278
122.835
126.081
126.724
124.744
119.932
111.826
100.302
86.2076
71.5683
59.0243
50.6156
46.6583
45.5734
44.7766
42.1151
36.9628
30.3682
24.1287
19.6117
17.0134
15.5869
14.4848
13.4676
12.9675
13.5409
15.069
16.5503
16.535
14.0771
9.35668
3.72876
-0.952008
-3.19911
-2.51059
0.666972
5.31143
10.3825
15.1153
19.0558
22
24.0243
25.5129
27.0256
28.9949
31.4475
33.892
35.5816
36.1237
35.8829
35.8871
37.2546
40.5318
45.3112
50.4343
54.6982
57.5567
59.4841
61.6116
65.009
69.9978
75.8873
81.266
84.6397
85.0083
82.1577
76.4786
68.7318
59.7554
50.3778
41.4697
33.9213
28.4057
24.9689
22.6847
20.0152
15.7634
10.2811
5.74891
5.01105
9.15762
15.4677
17.7562
9.96234
-8.2475
-27.4926
-29.9915
2.7503
78.7178
186.864
297.129
370.835
377.346
308.692
184.413
43.5388
-72.2058
-135.455
-142.121
-108.772
-61.2736
-21.7435
-0.420944
4.60337
1.68306
-1.27482
-0.862301
2.00074
4.94038
6.80536
8.33894
10.9144
14.9271
19.1579
21.6065
20.9982
17.6576
13.2605
9.53984
7.19969
5.80522
4.54183
3.33171
3.20578
5.53315
10.7965
17.8594
24.4203
28.4199
29.519
29.5002
31.2307
36.7682
45.9134
56.1855
64.3348
68.2989
68.4262
67.092
67.2254
70.5967
77.0796
85.2289
93.4109
100.776
107.36
113.455
118.953
123.246
125.745
126.487
126.214
125.876
125.804
125.279
122.917
117.664
109.629
100.23
91.2837
83.657
76.5204
67.8237
55.8054
40.5753
24.6924
12.1124
6.15499
7.53145
13.821
20.7241
24.2265
22.581
16.8204
9.75775
4.26575
1.89385
2.58141
5.31937
8.99198
12.7928
16.1442
18.4076
18.9249
17.4423
14.5678
11.6316
10.0044
10.1823
11.4999
12.6454
12.6603
11.8417
11.6038
13.4737
17.9108
23.725
28.5452
30.1338
27.6303
22.048
15.7653
11.4201
10.7386
13.9644
19.94
26.8304
32.9698
37.6149
41.084
44.2949
47.9372
51.7224
54.2188
53.5048
48.4013
39.4874
29.234
21.0061
17.3552
18.6363
22.7773
26.5268
27.2798
24.5
19.7758
15.5973
13.8936
15.2103
18.8405
23.5339
27.9776
30.5716
29.045
21.1168
6.65126
-9.72256
-17.6114
-3.66676
41.92
118
208.656
286.588
323.297
301.819
225.369
116.988
9.93408
-66.366
-97.7434
-88.6866
-56.9347
-23.1032
-1.23979
5.25744
1.51748
-4.36049
-6.64683
-4.17022
0.711074
4.80297
6.30068
5.45974
3.69337
2.28962
1.6318
1.28058
0.619983
-0.406963
-1.07101
-0.295683
2.56663
7.21226
12.3658
16.4143
18.2423
17.8821
16.5049
15.8608
17.3477
21.3209
27.0212
33.0547
38.1171
41.5616
43.6075
45.1523
47.39
51.2564
57.0886
64.3958
72.0626
78.8462
84.0124
87.7546
91.1289
95.4676
101.519
108.912
116.214
121.616
123.874
122.903
119.802
116.125
112.956
110.317
107.196
102.193
94.3585
83.7551
71.4805
59.199
48.3979
39.8098
33.2364
27.8372
22.693
17.3628
12.1882
8.05851
5.85586
5.86582
7.53046
9.61718
10.7431
10.0767
7.67814
4.46666
1.71702
0.394551
0.673861
1.89766
3.00459
3.17222
2.29454
0.993223
0.155506
0.262458
1.13043
2.0609
2.44676
2.25016
2.04945
2.51717
3.70481
4.86771
4.95433
3.60237
1.76993
1.40937
4.21695
10.252
17.513
22.9013
24.1042
21.189
16.7204
14.2652
16.186
22.1559
29.4152
34.5051
35.3141
32.0851
26.8738
21.9987
18.6406
16.4474
14.3065
11.4501
8.07129
5.08994
3.42777
3.35326
4.32875
5.32581
5.34217
3.96834
1.59011
-0.661998
-1.39002
0.146549
3.11078
4.91238
2.61157
-4.27301
-11.074
-7.62453
18.1732
73.4582
153.691
240.477
306.59
326.91
290.022
204.371
95.3699
-5.43418
-73.3541
-99.0927
-89.2973
-59.9793
-27.5333
-2.31763
12.6812
19.261
20.3963
18.3495
14.9051
12.2908
13.1459
19.2137
29.8203
41.5846
50.0175
51.9345
47.2049
38.5448
29.6509
23.1178
19.3844
17.2052
15.125
12.7104
10.7968
10.6697
12.8843
16.8784
21.2318
24.4683
25.7629
25.0363
22.6913
19.1694
14.8519
10.2866
6.41775
4.53861
5.79791
10.4754
17.5344
24.832
29.9383
31.2246
28.6312
23.7103
18.928
16.4952
17.2889
20.5307
24.2085
26.0578
24.6283
19.8976
13.171
6.4389
1.4281
-1.07285
-1.34731
-0.404198
0.585475
0.845986
0.272824
-0.701237
-1.3925
-1.30832
-0.313624
1.38563
3.27657
4.79231
5.49411
5.13704
3.73202
1.63548
-0.439405
-1.57689
-1.05695
1.25078
4.61132
7.55001
8.51519
6.74532
2.93807
-0.887099
-2.37183
-0.1455
5.27594
11.5928
15.9881
16.76
14.3208
10.9134
9.14662
10.3226
13.5598
16.3899
16.41
12.9218
7.43392
-4e-006
-5.9e-005
-0.000162
-0.000251
-0.00024
-8.6e-005
0.000128
0.0002
-5.8e-005
-0.000622
-0.001159
-0.001191
-0.000485
0.000606
0.001207
0.000502
-0.001502
-0.003625
-0.00405
-0.001639
0.002776
0.006078
0.00404
-0.006497
-0.025682
-0.031591
0.150987
0.320584
0.207844
-0.301682
-0.98845
-1.29224
-0.671607
0.80342
2.14324
1.9313
-0.49471
-3.98558
-5.82721
-3.61198
2.3966
8.36526
8.84686
0.893722
-12.3288
-21.6047
-16.3892
8.12558
46.0707
82.0029
98.3538
85.0739
45.8377
-3.2503
-41.8424
-55.6308
-42.7271
-12.9495
18.8506
40.8218
48.9434
46.5103
39.946
34.3072
31.1337
29.2956
27.2145
24.478
21.9461
20.7208
21.0472
22.092
22.5719
21.6535
19.4207
16.8075
15.2602
15.5677
17.6164
20.5039
22.8944
23.6555
22.3928
19.7419
17.0298
15.5976
15.9967
17.745
19.5424
20.0316
18.5909
15.7524
13.0041
11.9808
13.6739
17.9645
23.7837
29.8124
35.1348
39.5687
43.4881
47.2185
50.5928
53.0026
53.8838
53.1705
51.4583
49.5981
48.0329
46.328
43.466
38.4883
31.2366
22.659
14.3615
7.85235
3.85682
2.1365
1.84942
2.11352
2.36554
2.40833
2.25828
2.06952
2.15631
3.10988
5.66281
10.1655
15.9958
21.4205
24.1312
22.3964
16.1435
7.46809
-0.146007
-3.42894
-1.07197
5.5629
13.0376
17.6878
17.5573
13.351
7.8832
4.2901
4.23639
7.10766
10.5966
12.2462
10.8649
7.02276
2.47134
-0.959456
-2.21787
-1.18317
1.75027
6.04371
11.0344
15.7687
18.925
19.2926
16.5676
11.8747
7.50909
5.83675
7.96611
13.0614
18.7655
22.5933
23.3298
21.6008
19.3584
18.5957
20.1646
23.4341
26.8392
28.9297
29.2724
28.6616
28.6429
30.746
35.7627
43.4057
52.4189
61.0511
67.597
70.8716
70.4753
66.7896
60.8561
54.1193
48.1049
44.0731
42.6338
43.4215
45.0473
45.5034
42.9894
36.9519
28.7908
21.7015
19.3186
23.5646
32.7753
41.3948
42.1744
30.5503
9.17343
-10.2794
-10.219
25.066
100.016
201.852
302.301
367.554
372.509
312.361
205.389
85.2475
-13.473
-69.0866
-79.3124
-58.1627
-26.1866
-0.012855
13.3834
15.9612
13.712
11.4965
10.6491
9.92493
7.88911
4.53588
1.16287
-0.889577
-1.34087
-0.955537
-0.629345
-0.609486
-0.348362
0.814846
2.85597
4.95284
6.0537
5.61286
4.03412
2.36902
1.52678
1.68161
2.21176
2.24726
1.32764
-0.241345
-1.59952
-1.90953
-0.847329
1.2933
3.9596
6.7128
9.49156
12.5107
16.0411
20.2565
25.2312
31.061
37.831
45.4459
53.4788
61.1788
67.7405
72.7559
76.4309
79.5368
82.9777
87.2768
92.2583
97.0226
100.268
100.748
97.7736
91.5092
83.0559
74.0922
66.1809
60.0919
55.4371
50.981
45.5185
38.7236
31.4724
25.3233
21.4156
19.6978
18.9156
17.4913
14.7149
11.3568
9.19055
9.73714
13.0907
17.5508
20.5561
20.1696
16.215
10.3238
4.99464
2.15661
2.21436
4.02883
5.8075
6.23419
5.15397
3.50488
2.57087
3.15215
5.08228
7.39187
8.98061
9.23281
8.28637
6.84785
5.647
5.00901
4.7781
4.53315
3.94739
3.01011
1.99463
1.25515
0.96279
0.968144
0.956947
0.672533
0.10429
-0.511253
-0.861012
-0.752857
-0.261237
0.341026
0.838698
1.25079
1.75632
2.46255
3.11172
3.12399
1.89263
-0.602222
-3.40842
-4.74654
-2.77296
3.31447
12.7909
23.6654
33.7565
41.9422
48.7901
56.0793
65.496
77.3049
89.8205
100.178
105.911
106.3
102.676
97.569
93.2623
90.715
89.4438
88.356
86.8664
85.3612
84.793
85.7573
87.9419
90.3177
91.9094
92.3859
91.8082
89.7082
84.526
74.5468
60.6123
48.8428
50.8494
79.6463
142.206
232.462
329.407
403.02
426.315
387.697
297.067
181.913
75.3315
2.15715
-29.7593
-29.1852
-13.6009
1.05424
7.1202
5.68068
2.22723
1.25067
3.33654
5.89981
6.03694
3.0008
-1.35964
-4.10814
-3.34591
0.662906
5.89762
9.93102
11.2407
9.79015
6.73069
3.60909
1.54434
0.851318
1.13492
1.6641
1.81451
1.34318
0.457136
-0.389348
-0.803969
-0.680445
-0.209516
0.282194
0.561146
0.503159
0.196556
-0.184293
-0.448381
-0.45213
-0.178498
0.224475
0.428955
0.141699
-0.653216
-1.53662
-1.7778
-0.852618
1.01935
2.74335
2.86673
0.666812
-3.01629
-5.75669
-4.75216
1.50008
11.9896
23.4712
32.1509
35.8759
35.4089
33.9224
34.9673
40.1934
48.2519
55.5556
58.3979
55.0828
46.7647
36.6825
28.3438
23.8182
23.0628
24.411
25.7261
25.4337
22.9395
18.6075
13.3262
8.09176
3.71598
0.638524
-1.12885
-1.85555
-1.82495
-1.17269
0.184221
2.22671
4.50222
6.05174
5.85482
3.62017
0.350997
-1.83674
-0.735778
4.62032
13.0894
21.6521
26.7589
26.1155
19.7667
10.1404
0.891122
-4.69369
-5.03897
-0.690105
6.09433
12.4269
15.896
15.4101
11.5038
6.03007
1.43188
-0.287197
1.62166
6.38996
12.2387
17.3955
20.9353
23.0981
24.7836
26.5842
28.1577
28.368
26.065
21.0336
14.3078
7.82759
3.43898
1.89061
2.62306
4.24198
5.4158
5.61492
5.25916
5.30861
6.48034
8.70669
11.0981
12.4207
11.8428
9.56339
6.93221
5.93401
8.27662
14.5696
24.0447
34.9958
45.7594
55.5971
64.8832
74.5098
84.9415
95.512
104.474
109.882
110.686
107.435
102.101
97.0968
94.07
93.0864
92.7254
90.7696
85.4141
76.4019
65.5782
56.4847
52.7786
56.0115
63.8529
70.1629
67.9305
54.172
34.2498
22.3286
36.0713
87.1385
172.239
270.119
347.888
374.622
335.883
241.33
121.035
12.2888
-56.618
-77.0227
-60.1808
-28.2344
-1.75161
9.26398
6.78926
-0.324639
-3.72591
-0.41818
7.01231
13.7007
16.3538
14.9965
12.1024
10.3163
10.6523
12.2711
13.4841
13.1654
11.4375
9.46722
8.66628
9.82117
12.6631
15.9709
18.2677
18.4542
16.3675
12.8929
9.52449
7.53784
7.3944
8.62525
10.3806
12.1712
14.3568
17.8293
23.2027
29.9611
36.3724
40.2692
40.3545
37.1712
33.0272
30.9253
33.1796
40.3194
50.9055
62.3294
71.9009
77.8503
79.7812
78.4909
75.426
72.0782
69.4647
67.8712
66.8535
65.4828
62.6502
57.4775
49.6295
39.5678
28.4646
17.9122
9.36033
3.57328
0.357138
-1.20545
-2.14809
-2.94342
-3.20759
-2.14529
0.644701
4.50995
7.89562
9.21886
7.97819
5.25694
3.25206
3.87081
7.49057
12.5931
16.6688
17.704
15.3163
10.8999
6.69349
4.43211
4.59192
6.47555
8.91879
11.0741
12.6001
13.4227
13.4531
12.5753
10.9541
9.28507
8.64232
9.84879
12.8438
16.5484
19.391
20.2282
18.988
16.5436
14.0343
12.0859
10.4614
8.51929
5.94203
3.25936
1.69214
2.44551
5.95911
11.5625
17.7623
22.8542
25.5443
25.2752
22.3021
17.5301
12.2948
8.05778
5.99999
6.66398
9.67121
13.7754
17.3414
18.9704
18.1176
15.2839
11.8376
9.45364
9.28156
11.3829
14.5961
17.0127
16.903
13.7069
8.49586
3.56562
1.1838
2.31002
5.98506
9.88116
11.6912
10.5471
7.59676
5.19753
5.43166
8.75156
13.7378
18.1492
20.4974
21.1206
21.9635
25.1603
31.3684
38.9679
44.8032
45.925
41.4293
32.9913
23.9431
17.3732
14.5301
14.4767
15.0582
14.6056
12.9755
11.3938
11.2812
12.8801
14.9694
15.8534
14.8488
13.0972
12.7335
14.792
17.5233
16.7045
8.75786
-4.9119
-15.3779
-8.11234
30.2344
103.063
198.064
288.749
343.778
340.305
274.717
165.071
43.7698
-55.8443
-112.304
-122.311
-98.3873
-60.4875
-26.4284
-5.89906
0.28738
-2.98753
-9.44148
-14.4245
-15.8932
-13.8945
-9.61648
-4.64958
-0.412081
2.18921
3.09344
3.05723
3.29173
4.92143
8.51714
14.0309
20.8918
28.2577
35.1217
40.3881
43.1283
42.9014
40.1734
36.3601
33.3206
32.5543
34.5211
38.5425
43.2866
47.4901
50.5862
52.7847
54.7027
56.9381
59.7623
63.0873
66.6241
70.1087
73.3475
76.2139
78.6814
80.8339
82.8593
84.9126
86.933
88.509
88.9889
87.846
85.1247
81.5836
78.3998
76.5208
76.0572
75.9964
74.6217
70.2862
62.1672
50.7115
37.5782
24.9934
14.9288
8.41228
5.22755
4.16758
3.69944
2.75122
1.18103
-0.321704
-0.852666
-0.031012
1.62617
2.99834
3.20013
2.35425
1.66987
2.67124
5.99359
10.6715
14.3826
14.8584
11.4857
6.00888
1.72489
1.65053
6.63436
14.738
22.267
25.9155
24.6067
19.9558
15.1153
12.8134
13.8635
17.0335
20.1796
21.7526
21.6951
21.1758
21.5119
23.0309
24.7553
25.0741
22.8746
18.2885
12.7147
7.99071
5.32981
4.73554
5.14503
5.22899
4.22109
2.32358
0.41522
-0.63438
-0.479114
0.580807
1.9057
3.07915
4.13522
5.41453
7.13824
9.09436
10.6683
11.2175
10.4908
8.71681
6.42212
4.12002
2.08175
0.542379
-0.05373
0.905643
3.89136
8.72977
14.286
18.7529
20.4297
18.5402
13.6814
7.52509
2.08857
-1.07037
-1.22455
1.51534
6.38512
12.2711
17.9571
22.4536
25.4132
27.371
29.5376
33.1592
38.7204
45.4998
51.8219
56.0146
57.2645
55.8813
52.7603
48.6625
43.8051
38.0787
31.664
25.4328
20.6705
18.1271
17.1618
15.7997
11.9841
5.21601
-2.54781
-7.7259
-7.51539
-2.33156
3.65569
4.96258
-0.560092
-7.75793
-4.12612
24.8475
86.7715
174.569
265.106
326.57
331.988
272.436
162.755
36.1552
-69.7176
-128.41
-134.088
-100.689
-52.2388
-10.4887
13.5664
21.0297
20.1599
19.4349
22.8826
29.5236
35.9655
39.4894
39.5434
37.2242
33.7777
29.6553
24.7217
19.1556
14.0767
11.2906
12.168
16.4913
22.1914
26.2768
26.4066
22.1951
-0
-6e-006
-2e-005
-3.9e-005
-5.1e-005
-4.6e-005
-2.5e-005
-8e-006
-2.6e-005
-9.3e-005
-0.000184
-0.000242
-0.000212
-9.9e-005
1e-005
-5e-006
-0.000205
-0.000514
-0.000723
-0.000616
-0.000155
0.000396
0.000507
-0.000419
-0.00279
-0.005017
0.010005
0.042154
0.046999
0.005111
-0.093602
-0.182561
-0.179312
-0.042098
0.15536
0.242792
0.057634
-0.380914
-0.789884
-0.804833
-0.259635
0.572491
1.04939
0.554344
-0.937653
-2.59024
-3.01293
-0.996247
3.6651
9.85705
15.5747
18.9027
18.9335
16.1971
12.2919
8.98725
7.33885
7.29294
7.90792
8.03851
7.04622
5.13378
3.19592
2.29022
3.01438
5.12124
7.5833
9.08414
8.72136
6.53793
3.55666
1.31622
1.07094
3.03773
6.22553
8.90055
9.50632
7.49521
3.65548
-0.168717
-1.98839
-0.551947
4.1052
10.7684
17.5797
22.7489
25.0845
24.2177
20.6036
15.3017
9.71841
5.30453
3.17827
3.70965
6.39612
9.9948
12.9537
14.1245
13.2024
10.7832
8.00645
6.0079
5.46573
6.54665
9.03313
12.483
16.2568
19.5154
21.272
20.729
17.756
13.1451
8.46276
5.47218
5.37552
8.38317
13.7077
19.9634
25.719
29.9174
31.9919
31.8466
29.7896
26.4632
22.6962
19.2165
16.3121
13.7075
10.8485
7.4636
4.04727
1.72082
1.45918
3.16202
5.26618
5.53148
2.72357
-2.011
-5.33125
-3.84097
2.86717
10.5416
11.7526
0.649667
-21.3815
-43.1044
-46.6622
-16.1889
52.2219
144.908
233.521
286.003
280.66
216.248
112.757
2.63399
-83.0377
-126.448
-127.709
-101.043
-65.6384
-36.5537
-19.7898
-13.0176
-10.0664
-5.79256
1.2077
8.95158
14.3526
15.6709
13.5539
10.3817
8.63182
9.44138
12.0749
14.6115
15.1477
12.9447
8.85413
4.84103
2.9559
4.22471
8.17556
13.1121
16.9992
18.543
17.8673
16.4415
16.2742
18.8306
24.2648
31.3536
38.1311
42.9564
45.3466
46.1675
47.0865
49.5462
53.9777
59.6364
65.1184
69.2986
72.0162
74.0931
76.6964
80.4898
85.0897
89.2174
91.4312
91.0256
88.4748
85.1125
82.3394
80.7581
79.8859
78.5408
75.6262
70.7557
64.2293
56.6181
48.2595
39.1548
29.3491
19.477
10.7988
4.72541
1.90439
1.66502
2.31012
2.2058
0.916292
-0.460918
0.027807
3.72498
10.2366
17.3876
22.4131
23.6043
21.322
17.7048
15.3002
15.4813
17.7242
20.229
21.2968
20.4957
18.8153
17.8041
18.3339
19.9645
21.2929
21.0473
18.9589
15.8703
13.048
11.3101
10.5423
9.95769
8.8342
7.10736
5.43876
4.76741
5.63313
7.86297
10.6669
13.037
14.2198
14.0288
12.7907
11.2736
10.4098
10.9313
12.9823
15.9439
18.5584
19.5301
18.258
15.3764
12.5172
11.4341
12.8546
15.893
18.3633
17.9896
13.9203
7.38712
1.21616
-1.67437
0.1026
5.65298
12.3308
17.1791
18.4016
16.0811
11.8651
7.95871
6.1002
7.04256
10.5921
15.9577
22.0847
27.9029
32.4306
35.0797
35.8534
35.3891
34.6296
34.1392
33.6302
32.0491
28.2869
22.1659
14.8894
8.70531
5.75895
6.8323
10.7534
14.8764
16.3879
13.9078
8.32371
2.41666
-0.74149
0.110527
3.04018
3.42247
-3.31602
-17.676
-33.1202
-36.5526
-13.4322
44.1632
130.39
224.034
294.782
315.298
273.64
179.611
61.3284
-46.3958
-116.2
-137.883
-119.557
-80.6836
-41.6915
-15.58
-5.02039
-5.00012
-8.09346
-8.91683
-5.91423
-0.551017
4.67013
7.90072
8.57258
7.23259
5.07168
3.46415
3.53719
5.86279
10.2245
15.6375
20.6991
24.1746
25.5486
25.2237
24.335
24.1621
25.402
27.8621
30.5149
32.1423
32.1176
30.955
30.2525
31.8855
36.7978
44.0972
51.107
54.618
52.6909
46.0464
38.0913
33.3667
35.2126
43.8948
56.3771
67.9437
74.7258
75.7257
73.0109
70.1365
69.7491
72.0457
74.9129
75.6349
72.9001
67.6485
62.1518
58.1948
55.5501
51.9394
44.6796
32.7744
18.0173
4.42427
-3.97152
-5.37553
-1.21922
4.74074
8.66462
8.71678
5.82857
2.74903
2.06845
4.62047
9.12002
13.2044
14.8832
13.7161
10.8066
7.9461
6.48946
6.75568
8.18456
10.0703
12.1015
14.5525
17.8864
22.1211
26.4535
29.3935
29.4208
25.8245
19.3795
12.3058
7.43158
6.81288
10.6179
16.9331
22.6417
25.1039
23.6012
19.6844
16.2125
15.6451
18.5881
23.5413
27.8766
29.4135
27.5631
23.4165
18.8458
15.3411
13.2874
12.1641
11.1761
9.91127
8.496
7.3479
6.7373
6.63614
6.82148
7.10029
7.40595
7.70384
7.79308
7.22203
5.35122
1.61975
-4.10549
-11.2794
-18.6813
-24.5661
-27.1928
-25.477
-19.6643
-11.4599
-3.6272
1.06881
1.11349
-2.98991
-8.81189
-13.138
-13.4542
-9.08044
-1.38631
6.96531
13.389
16.4723
16.3884
14.3981
11.861
9.37151
6.5101
2.39781
-3.50698
-10.7929
-18.0033
-23.3265
-25.4588
-24.3446
-21.2953
-18.2335
-16.5921
-16.4605
-16.5809
-15.4598
-13.0577
-11.6729
-14.9573
-24.8627
-38.1492
-45.0328
-31.9665
11.4583
84.8597
173.062
249.258
285.056
263.046
185.599
74.8895
-36.0223
-116.766
-151.201
-141.475
-103.644
-58.2593
-21.115
1.3952
11.2742
14.467
16.1416
18.3499
20.5377
21.5371
21.2125
20.8376
22.023
25.3711
29.7941
32.9674
32.6422
27.9391
20.117
12.1083
7.13406
7.13015
11.7122
18.4204
23.9818
25.9696
23.9861
19.6981
15.7419
14.2745
15.9959
20.06
24.8064
28.7852
31.4469
33.2027
34.9437
37.5622
41.5815
47.0407
53.4963
60.0213
65.3818
68.3649
68.4271
66.2039
63.5004
62.5335
64.6658
69.4703
74.7055
77.5323
76.3231
71.8727
67.1651
65.7039
69.2542
76.4611
83.2564
84.8672
78.2921
63.9165
45.2639
27.2273
13.8434
6.70564
4.85227
5.77114
6.92239
6.85637
5.51426
3.81682
2.84046
3.16034
4.61541
6.45039
7.7272
7.80989
6.692
5.01247
3.78712
3.87504
5.51397
8.13336
10.6755
12.2177
12.4071
11.6704
10.8894
10.73
11.2588
11.9211
12.0083
11.2051
9.76439
8.33063
7.38311
6.85185
6.23652
5.11646
3.66987
2.7633
3.37704
5.78839
9.0946
11.5484
11.5911
8.90696
4.78524
1.49577
0.91723
3.32205
7.06977
9.49922
8.48755
3.63168
-3.57843
-10.6268
-15.3892
-17.1288
-16.613
-15.3609
-14.6531
-14.8583
-15.3983
-15.3261
-14.0049
-11.5227
-8.67613
-6.53142
-5.92493
-7.07647
-9.40552
-11.6846
-12.4891
-10.7258
-6.17995
0.339926
7.2018
12.5847
15.1996
14.8035
12.2313
8.87208
5.879
3.68681
1.89685
-0.291481
-3.3749
-7.05917
-10.4252
-12.6304
-13.791
-15.303
-19.0521
-25.8952
-34.4299
-41.3161
-43.3703
-40.3671
-36.4873
-38.5582
-51.1548
-71.2611
-86.2131
-77.8031
-31.6898
52.4409
156.1
246.673
290.396
267.646
182.648
62.3113
-55.2642
-136.863
-166.749
-150.067
-106.738
-59.9886
-26.0521
-9.57312
-5.58769
-5.46745
-2.90905
3.39032
10.7359
15.5624
16.2927
14.2784
12.4602
13.1479
16.4658
20.4273
22.5227
21.6142
18.6582
15.8395
14.8599
15.6286
16.3391
15.0437
11.4596
7.47714
6.1921
9.82865
18.1461
28.4382
37.1784
42.1304
43.5381
43.594
44.7547
48.1617
53.2383
58.4774
62.7967
66.3086
70.0109
74.8645
80.9755
87.4712
93.1281
97.179
99.7185
101.421
102.886
104.198
104.904
104.42
102.43
99.018
94.4679
88.9629
82.4498
74.8301
66.2402
57.1106
47.9378
39.0123
30.3007
21.6855
13.3448
5.98824
0.630841
-1.97423
-1.94389
-0.384127
1.16682
1.62589
1.02247
0.443925
1.32536
4.37664
9.12645
14.1085
17.7074
19.0299
18.2669
16.3875
14.5055
13.2186
12.355
11.1929
9.04805
5.78876
2.15467
-0.350998
-0.123698
3.66963
10.3816
17.7398
22.6836
22.867
18.1138
10.8455
5.06916
4.35133
9.86265
19.6149
29.4771
35.319
35.0301
29.3274
21.0326
13.3705
8.50292
7.01829
8.26132
11.1514
14.7673
18.4682
21.7334
23.9846
24.672
23.5657
20.9246
17.4269
13.9315
11.1452
9.35313
8.27846
7.18036
5.07497
1.30735
-3.96526
-9.52764
-13.4982
-14.1853
-11.0583
-5.16509
1.35684
6.49906
9.54783
11.5707
14.7703
21.0588
30.7089
41.9114
51.5945
56.9916
56.9865
52.5253
45.8647
39.1767
33.2968
27.4906
20.2996
10.9332
0.274475
-9.26376
-15.1092
-16.3132
-14.4788
-12.9877
-14.7624
-19.9466
-25.3637
-26.5737
-21.5303
-13.2899
-9.15048
-15.7753
-32.8788
-49.72
-47.9797
-10.9478
65.4047
166.112
260.343
313.583
303.221
229.382
115.186
-3.53864
-93.6394
-137.18
-135.604
-104.774
-64.9682
-31.6966
-11.3614
-2.43514
0.177654
0.962349
1.92318
2.94059
3.23489
2.50727
1.17483
-0.01064
-0.502122
-0.200006
0.635588
1.58084
2.31848
2.80626
3.34881
4.51954
6.96262
11.0503
16.6355
23.0526
29.3475
34.6249
38.3917
40.6976
41.9826
42.9014
44.14
46.2301
49.4135
53.533
58.1063
62.4946
66.2166
69.222
71.9496
75.1337
79.4026
84.8494
90.9153
96.6006
100.931
103.443
104.422
104.782
105.627
107.657
110.841
114.451
117.42
118.794
118.021
115.001
110.003
103.411
95.5888
86.8062
77.2297
66.9544
56.0978
44.9536
34.1149
24.4931
17.1288
12.7135
11.111
11.1784
11.2353
9.93541
7.15952
4.29468
3.56707
6.65315
13.5229
22.1484
29.3981
32.6799
31.3011
26.7674
21.842
19.0363
19.4719
22.6377
27.0931
31.4779
35.1502
38.2561
41.2343
44.2789
47.1063
49.076
49.4716
47.8374
44.2773
39.4925
34.6538
30.9892
29.2687
29.4382
30.6182
31.601
31.5812
30.6129
29.5254
29.2733
30.1689
31.4855
31.8943
30.2861
26.5287
21.6289
-0
-5e-006
-9e-006
-5e-006
1.3e-005
4.1e-005
5.9e-005
3.7e-005
-5e-005
-0.000196
-0.000359
-0.000478
-0.000505
-0.000451
-0.000398
-0.000469
-0.000766
-0.001267
-0.001794
-0.002072
-0.00192
-0.001471
-0.001237
-0.001872
-0.003632
-0.004255
0.010837
0.012737
-0.018381
-0.066947
-0.103445
-0.0581
0.105332
0.338096
0.498181
0.419877
0.013522
-0.63528
-1.24461
-1.46926
-1.10959
-0.291967
0.407032
0.245582
-1.20697
-3.49766
-5.1575
-4.4294
-0.705679
4.13129
5.6505
-0.884092
-16.5225
-35.0201
-42.5642
-22.6345
35.2224
126.998
231.338
315.386
347.721
312.59
217.932
92.7191
-25.2642
-105.11
-134.013
-119.17
-80.5375
-39.5239
-9.87471
5.3267
10.6341
12.5296
14.9196
17.9507
19.6625
18.4416
14.4704
9.46253
5.41761
3.48885
3.60972
4.90033
6.36973
7.33802
7.49903
6.83365
5.55358
4.02592
2.72364
2.07068
2.18064
2.85402
3.81274
5.10824
7.3493
11.4796
18.1504
27.0489
36.6554
44.8236
49.857
51.5475
51.5013
52.3692
56.42
64.3578
74.9068
85.4196
93.2693
97.1534
97.5815
96.3997
95.7223
96.8318
99.7973
103.8
107.98
112.076
116.354
120.985
125.268
127.505
125.677
118.672
107.207
93.7182
81.1801
71.4635
64.4225
58.2481
50.9168
41.7297
31.8572
23.5167
18.405
16.5478
16.4437
16.2677
15.2421
14.1066
14.3431
16.7481
20.4983
23.4223
23.2913
19.3192
12.8105
6.49535
3.01774
3.52781
7.17373
11.689
14.6978
14.8612
12.3446
8.51393
5.15444
3.51331
3.88173
5.57263
7.3753
8.24591
7.89058
6.96491
6.71346
8.22416
11.6951
16.1322
19.6984
20.6538
18.2947
13.4618
8.08585
4.12502
2.49652
2.68267
3.35141
3.45416
3.11626
3.6152
6.39356
11.8959
18.8992
25.0074
27.9953
27.129
23.5275
19.4467
16.8047
16.0382
16.0609
15.2247
12.5916
8.70096
5.23482
3.82689
4.9142
7.4339
9.52682
9.74435
7.99357
5.56603
4.24442
5.18716
8.29163
12.384
16.1131
18.843
21.0053
23.6251
27.4842
32.427
37.2764
40.3519
40.3101
36.7602
30.4084
22.7163
15.332
9.60495
6.27956
5.48483
6.73644
8.94599
10.5135
9.66601
5.25174
-2.42585
-11.169
-17.5536
-18.7472
-14.6092
-8.82576
-7.70991
-16.4642
-34.5257
-52.9659
-56.3262
-29.4006
33.759
123.525
215.225
277.528
285.475
231.864
131.093
13.3948
-87.7667
-148.781
-163.41
-141.845
-102.972
-64.7583
-37.5839
-22.9842
-16.8704
-14.1731
-12.0113
-10.1378
-9.47198
-10.3477
-11.8256
-12.2452
-10.335
-6.03271
-0.500532
4.55054
7.71338
8.43498
7.19004
5.19294
3.93059
4.60733
7.73689
12.9254
19.0432
24.7797
29.2701
32.5581
35.4879
39.1603
44.2266
50.4284
56.68
61.6749
64.6196
65.687
65.9034
66.5597
68.5302
71.9056
76.1642
80.671
85.1696
89.9244
95.4683
102.083
109.356
116.263
121.613
124.622
125.297
124.35
122.707
120.838
118.481
114.792
108.868
100.321
89.5478
77.5972
65.7347
54.9829
45.9057
38.4544
32.1159
26.2035
20.2336
14.2762
9.08389
5.84145
5.54795
8.2019
12.5279
16.2941
17.2834
14.5118
8.88568
2.82326
-1.00486
-1.12158
1.98071
6.2078
9.13571
9.43505
7.53288
5.18051
4.22769
5.43702
8.04308
10.3231
10.7855
9.19578
6.75322
5.41524
6.71985
10.7577
15.9612
19.8559
20.3242
16.7136
10.2312
3.32483
-1.5858
-3.43826
-3.02101
-2.43749
-3.78245
-7.8452
-13.6409
-18.8933
-21.3406
-19.9367
-15.3079
-9.34536
-4.1044
-0.835249
0.398025
0.47825
0.595441
1.61418
3.72196
6.36789
8.60543
9.55722
8.80729
6.78673
4.79219
4.43863
6.86398
11.942
18.1307
23.1374
25.0879
23.5705
19.8322
16.0485
14.1297
14.8019
17.4806
20.8924
23.9158
26.1067
27.6549
29.052
30.8094
33.3331
36.9961
42.0423
48.1732
54.2671
58.5097
59.0975
55.1769
47.4587
38.0279
29.4121
23.4853
20.7772
20.4449
20.9368
20.7486
18.9237
15.393
10.996
7.38266
6.4774
9.38418
15.0976
19.9774
18.9191
8.41914
-9.60785
-25.7465
-25.0518
6.47722
73.4998
165.403
257.042
317.207
321.546
263.821
159.596
40.1814
-60.3668
-118.734
-129.958
-105.993
-67.3073
-32.4329
-10.9128
-2.36557
-0.542298
0.990901
5.05654
10.4387
14.1091
14.0855
10.946
7.39708
6.48855
9.76294
16.3492
23.4335
27.7676
27.3589
22.5005
15.6533
10.1766
8.50549
10.89
15.4111
19.2099
20.3677
19.0256
17.1717
17.1408
19.899
24.3604
28.2065
29.6493
28.8233
27.7264
28.8147
33.1778
39.6444
45.5603
48.6269
48.611
47.6378
48.9296
54.7951
65.1965
77.7158
88.8176
95.6423
97.2126
94.7046
90.6135
87.5232
87.0345
89.1901
92.5322
94.6896
93.3941
87.3589
76.8044
63.3267
49.1227
36.0502
24.9822
15.8682
8.37187
2.50854
-1.21326
-2.34185
-1.26951
0.584423
1.43288
0.213213
-2.53362
-4.8605
-4.6355
-1.07413
4.51822
9.33526
10.7021
7.66557
1.55202
-4.8532
-8.91597
-9.43327
-6.96057
-2.97746
1.21404
5.08072
8.64528
11.8587
14.2239
15.0079
13.8786
11.4191
8.98976
7.98234
8.99994
11.4531
13.8871
14.8701
13.7955
11.2344
8.6164
7.56758
9.08858
13.0357
18.1541
22.5145
24.3931
23.0887
19.3801
15.2632
13.0316
14.0777
18.1219
23.2715
26.9119
27.0471
23.3119
17.181
11.2302
7.90155
8.42121
12.3422
17.9044
22.8678
25.5323
25.3576
23.0104
19.8865
17.3102
15.9356
15.5802
15.5497
15.1486
14.2208
13.2401
12.9278
13.6818
15.1999
16.5367
16.5324
14.4034
10.2499
5.13993
0.783684
-1.01855
0.893831
6.47483
14.3991
22.5055
28.6956
31.7406
31.7452
29.9408
27.9036
26.6909
26.3038
25.8599
24.1436
20.3709
14.6369
7.93547
1.78402
-2.32217
-3.40444
-1.42341
2.47167
6.22741
7.72718
5.96276
1.8682
-1.93429
-2.81008
-0.373158
2.20236
-0.534102
-12.3098
-30.4347
-43.6825
-35.5257
7.56633
86.5696
184.83
271.604
313.964
291.698
207.431
86.3879
-34.4182
-121.982
-160.086
-152.983
-119.31
-80.7396
-51.9428
-36.6533
-30.2991
-26.1054
-20.2362
-13.2874
-8.30108
-7.56545
-10.722
-15.0389
-17.2751
-15.5782
-10.2389
-3.14867
3.36251
7.68144
9.41823
9.29997
8.64212
8.68002
10.0885
12.8511
16.3604
19.7757
22.4528
24.196
25.1738
25.661
25.878
26.0057
26.3589
27.4661
29.876
33.7529
38.5608
43.23
46.7318
48.7572
50.0158
51.9095
55.6725
61.619
68.941
76.1835
82.0572
86.0213
88.2737
89.4088
89.9095
90.0487
90.0592
90.2279
90.7893
91.5352
91.53
89.3077
83.5253
73.8439
61.2942
47.8859
35.7126
25.9922
18.6755
12.8347
7.47075
2.29566
-2.14189
-4.84907
-5.13923
-3.17252
0.044641
3.13195
4.95917
5.01054
3.52347
1.22985
-0.997641
-2.49012
-2.91566
-2.30013
-0.971638
0.577645
1.81909
2.39192
2.27061
1.79544
1.58599
2.175
3.69809
5.72809
7.46729
8.22026
7.85125
6.86738
6.11553
6.18428
6.94727
7.65216
7.38625
5.78353
3.42089
1.61049
1.66959
4.1238
8.30756
12.6728
15.5798
16.1425
14.6285
12.1639
10.0608
9.14157
9.48288
10.6212
12.0212
13.5179
15.235
17.2475
19.2044
20.3461
19.9538
18.0379
15.6711
14.5944
16.2319
20.6178
26.0283
29.7246
29.5652
25.4083
19.4487
15.1189
15.1188
19.6942
26.4381
31.6719
32.6387
29.0131
22.9309
17.4858
14.8429
15.2112
17.2538
19.3555
20.7528
21.6557
22.5618
23.4215
23.5344
22.1695
19.5055
16.8975
16.1242
18.1934
22.5452
27.3655
30.7415
31.917
31.7441
32.0562
34.4408
39.3314
45.8477
52.3473
57.1935
59.3431
58.4498
54.7059
48.6817
41.2746
33.5747
26.628
21.1947
17.5746
15.5673
14.5426
13.6441
12.1159
9.91204
7.96506
7.9364
11.0809
16.6517
20.9718
18.7086
6.61
-12.1047
-25.767
-17.4366
26.8438
108.415
210.692
302.656
350.832
334.309
255.118
138.154
20.3818
-65.0352
-101.716
-93.9613
-60.761
-24.5064
-0.654831
6.73674
2.85289
-3.84443
-7.22276
-5.86208
-1.96882
1.49317
3.18547
3.90462
5.43163
8.82563
13.5718
17.952
20.3387
20.2587
18.6853
17.2502
16.8974
17.2782
17.0285
14.9327
10.9594
6.44899
3.18384
2.13281
2.74391
3.47511
3.23852
2.49981
3.22854
7.55594
16.0805
27.136
37.5085
44.2461
46.3445
45.2286
43.6816
44.1976
47.6146
52.9109
58.1754
61.9394
64.0056
65.4644
67.8749
