0.338645
1.09567
1.53511
1.15545
-0.15027
-1.84127
-2.8901
-2.39443
-0.324996
2.13219
3.05554
1.00733
-3.69315
-8.60109
-10.2687
-6.51269
1.48432
8.85003
9.32544
-0.527943
-17.4446
-30.5364
-24.7947
11.8868
81.3384
171.366
258.246
315.105
322.711
277.709
194.301
98.4774
17.4356
-30.8825
-43.4752
-31.0015
-10.7871
2.06344
1.11226
-10.0896
-21.6967
-23.7365
-11.3196
13.584
44.1723
72.9677
95.5168
111.661
124.054
135.271
145.602
152.982
155.057
151.888
147.305
147.73
158.874
182.192
213.274
243.402
263.637
269.301
262.369
250.424
242.707
245.429
258.839
277.513
293.478
300.307
295.948
282.946
266.304
250.459
237.18
225.4
212.771
197.782
181.069
165.16
152.872
145.293
140.49
133.642
118.633
90.4687
47.5532
-7.06348
-65.9994
-119.385
-157.666
-174.428
-168.268
-143.082
-106.721
-68.5955
-37.103
-17.6644
-11.7115
-16.5262
-25.6773
-30.0153
-19.5026
13.8436
72.1882
148.551
225.873
280.186
288.055
236.194
129.292
-8.12009
-137.879
-221.064
-232.627
-171.459
-61.1362
59.3649
151.03
189.486
172.618
118.294
54.0819
4.4976
-18.1381
-15.5636
1.41798
21.0115
36.8092
49.39
63.1947
81.4283
102.531
120.394
127.985
121.964
105.376
86.7613
76.1636
80.2376
99.0403
126.049
151.18
165.112
162.828
144.919
116.519
84.7831
56.2613
35.1841
22.9898
18.8064
20.3636
24.9213
30.0226
34.0189
36.2975
37.1183
37.06
36.3123
34.2531
29.7124
21.9452
11.8178
2.37612
-1.85424
3.18827
18.7717
41.9606
66.1342
83.4665
88.2801
79.5784
61.4028
40.7899
24.4081
15.6528
13.6787
14.7179
14.7564
11.9638
7.54191
4.66577
6.2881
13.1391
23.0199
31.6964
34.862
30.2041
18.6934
4.63998
-5.48597
-5.14285
9.81757
39.0266
76.6644
112.455
134.783
135.166
112.381
74.1783
35.2294
11.6094
13.9281
42.2587
85.4798
125.675
145.75
136.748
101.421
52.4492
6.3858
-23.5801
-32.5323
-24.3473
-8.12941
7.12254
16.7015
21.3051
25.0411
31.9527
43.2547
56.7453
68.4243
75.0819
76.228
74.3087
73.2586
76.3615
84.6474
96.5857
109.018
118.632
123.139
121.678
114.506
102.444
86.5111
67.9459
48.4104
30.064
15.2836
6.09442
3.60415
7.75569
17.5183
31.3674
47.7413
65.2211
82.4093
97.7296
109.452
116.09
117.027
112.954
105.763
97.7985
90.8345
85.4021
80.9547
76.8267
73.3278
72.0699
75.0064
82.5606
92.0697
97.9362
94.0645
77.7001
52.5662
29.0849
20.7811
38.1018
82.6175
144.781
206.809
249.615
260.542
238.172
192.028
137.617
89.5691
56.2683
38.2245
30.2467
25.5904
19.621
11.3208
2.46331
-4.45084
-8.02879
-8.63537
-7.81509
-7.13871
-7.27346
-7.73784
-7.30295
-4.66407
1.03357
10.0404
22.1867
37.1918
54.8408
74.8665
96.5565
118.311
137.503
150.939
155.951
151.755
140.352
126.304
115.08
110.49
112.399
116.087
114.089
100.079
73.088
39.6877
12.3899
4.23151
21.7254
59.7803
101.884
126.57
117.87
74.7652
14.2564
-34.7335
-44.888
-5.37794
69.5793
143.804
173.704
128.132
4.17899
-169.044
-340.941
-459.588
-492.16
-436.331
-318.152
-178.624
-56.3431
25.5132
62.993
66.5026
51.9948
33.752
21.7812
23.0405
43.2405
86.2816
150.982
227.595
297.611
338.695
333.362
277.265
182.556
74.1384
-19.7522
-78.1865
-94.4708
-76.4962
-41.0645
-5.57164
18.7727
29.4214
30.4798
28.2587
27.2054
28.1836
29.3676
28.534
25.0411
20.3441
16.9998
17.0149
20.6428
26.2988
31.5218
34.3267
34.1663
32.0375
29.7871
29.0833
30.6219
33.9282
37.7584
40.7919
42.2136
41.9187
40.3366
38.0984
35.8293
34.2035
34.1564
36.975
44.0177
56.0611
72.5807
91.4449
109.363
123.024
130.421
131.632
128.559
123.694
118.56
112.757
104.274
90.9873
72.5925
51.8385
34.2534
26.3186
32.8737
54.9624
89.1161
128.368
164.49
190.452
202.161
198.994
183.214
158.762
129.986
100.677
73.5488
50.1272
30.9394
15.9101
4.82046
-2.34445
-5.3307
-3.88919
1.75102
10.5067
20.4535
29.3168
35.235
37.391
36.1566
32.676
28.1608
23.346
18.4323
13.4937
8.98633
5.9048
5.37988
7.93391
12.9245
18.662
23.2726
25.8481
27.1292
29.1613
33.9657
41.9399
50.9974
57.1447
56.3883
47.0324
31.0694
13.7553
1.4166
-1.45697
5.67736
19.2455
33.4416
43.1733
46.4987
45.285
43.8101
46.1515
53.8371
65.0169
75.5252
81.1421
79.7566
72.2719
61.8723
52.191
45.4673
41.6748
38.9668
35.0252
28.4641
19.5228
9.78448
1.21831
-4.84015
-8.23456
-9.86604
-11.0771
-12.8966
-15.4595
-17.7575
-17.7423
-12.7618
-0.299653
21.0772
50.8082
85.8573
121.037
150.253
168.362
172.944
165.214
149.614
132.196
118.461
111.537
111.392
115.274
119.037
118.721
111.807
97.7974
78.1321
55.6049
33.544
14.9612
1.84805
-5.23121
-7.13528
-5.71774
-3.11392
-1.01169
-0.195152
-0.525187
-1.30742
-1.81613
-1.69381
-1.053
-0.293829
0.197358
0.270333
0.0435394
-0.22906
-0.33951
-0.235694
-0.01063
0.192106
0.277205
0.238657
0.134031
0.0287903
-0.0431131
-0.0809284
-0.0936959
-0.0808252
-0.0355512
0.0346567
0.0943446
0.0927683
0.000488698
-0.156006
-0.292879
-0.312683
-0.172557
0.0675205
0.256683
0.231974
-0.0737872
-0.559289
-0.969414
-1.00219
-0.456945
0.656097
2.10605
3.53561
4.60447
5.10418
4.9947
4.37026
3.40609
2.33282
1.43809
1.04483
1.41528
2.59218
4.27547
5.86543
6.72983
6.59253
5.79846
5.20952
5.6805
7.36812
9.34009
9.88231
7.51187
2.18317
-4.1337
-8.1304
-7.02112
-0.653437
7.52901
11.714
7.0255
-6.60282
-22.2815
-27.5911
-9.73687
37.5477
108.735
185.995
244.529
261.958
227.713
148.057
44.2194
-55.6503
-127.101
-157.831
-150.451
-118.918
-80.9599
-50.4438
-33.0936
-26.8735
-25.8485
-24.8264
-22.2021
-19.8768
-20.9389
-26.9201
-36.3827
-45.5402
-50.3327
-48.5978
-41.0867
-30.869
-21.6155
-15.797
-13.7457
-13.9399
-14.1826
-12.9294
-10.0594
-6.7755
-4.80811
-5.41788
-8.71724
-13.5959
-18.206
-20.7101
-19.9304
-15.6473
-8.49961
0.382021
9.80309
18.8291
26.9407
34.0487
40.4277
46.6072
53.2168
60.7821
69.5074
79.1368
88.9908
98.2108
106.125
112.554
117.885
122.849
128.136
134.063
140.508
147.131
153.726
160.408
167.468
174.943
182.178
187.73
189.783
186.925
178.879
166.731
152.483
138.115
124.692
112.006
98.9955
84.6653
68.9789
53.1539
39.1638
28.7179
22.3119
18.9175
16.5117
13.1638
8.07334
1.98098
-3.27133
-5.77779
-4.62806
-0.416969
5.05095
9.67546
12.0858
12.2333
11.2597
10.7414
11.7299
14.1072
16.6029
17.4865
15.5986
11.1895
6.07382
2.88521
3.62954
8.12661
13.1304
12.7876
0.6178
-27.491
-70.4059
-120.364
-164.091
-186.501
-175.909
-128.804
-52.143
38.0435
121.488
180.217
204.25
194.263
160.283
117.171
78.9379
54.2229
44.5449
45.5484
50.1976
52.2391
48.4817
39.2664
27.4155
16.5161
9.41158
7.40697
10.2245
16.4497
24.1646
31.5716
37.5148
41.8176
45.3113
49.4438
55.5076
63.7522
72.8197
79.8952
81.6659
75.7617
62.0268
42.9649
23.0423
7.08135
-1.55724
-2.17241
3.24466
11.123
17.9972
21.9407
23.0944
23.1342
24.0683
27.0647
31.9277
37.4348
42.2546
45.8565
48.8644
52.655
58.4446
66.41
75.3679
83.2286
88.0079
88.8694
86.6372
83.4845
81.9244
83.5837
88.3577
94.3609
98.7076
98.7636
93.291
82.976
70.123
57.6868
48.1026
42.429
40.1413
39.5871
38.8246
36.4306
31.9384
25.7936
18.9534
12.3957
6.78667
2.41251
-0.685411
-2.52959
-3.12252
-2.50031
-0.852601
1.41263
3.74038
5.61983
6.79081
7.33991
7.62107
8.03867
8.8132
9.85993
10.8445
11.3775
11.2324
10.4655
9.37636
8.33834
7.60011
7.16371
6.80035
6.19112
5.12182
3.64162
2.11348
1.12631
1.28744
2.95897
6.0363
9.876
13.4467
15.6919
15.9819
14.4482
12.0069
10.0026
9.60871
11.2805
14.5634
18.3785
21.6213
23.7033
24.6829
24.9078
24.4499
22.8138
19.2503
13.5661
6.85315
1.44686
-0.181499
2.86371
8.6783
12.9252
11.1172
1.91498
-10.4033
-16.1161
-3.51267
35.5481
100.587
180.726
257.558
311.77
330.607
312.75
268.331
214.206
166.871
136.368
123.808
123.125
125.596
124.521
117.802
107.586
97.7609
91.0706
87.5198
84.7365
79.7937
71.229
60.0239
49.0047
41.066
37.2974
36.1708
34.381
29.0039
19.7982
10.1839
5.93351
11.7681
27.3615
45.0097
50.8722
30.1739
-25.3352
-110.999
-207.478
-285.451
-315.799
-281.424
-185.574
-52.6407
79.5049
172.788
202.396
164.889
77.8383
-28.3016
-122.117
-181.703
-199.701
-181.867
-141.169
-91.0254
-40.8858
4.57038
43.5233
74.5365
95.4139
103.965
99.7951
85.5695
66.6458
49.1015
37.2603
32.1292
31.5784
32.0433
30.6789
26.7427
21.5546
17.2724
15.3657
15.7271
16.8567
16.8674
14.613
10.2643
5.08062
0.628133
-2.02274
-2.66532
-1.76965
0.0308029
2.39792
5.41981
9.39838
14.5041
20.5638
27.1218
33.7087
40.1126
46.4524
52.9952
59.8353
66.65
72.7079
77.1517
79.4074
79.4829
77.9729
75.7503
73.51
71.4279
69.1438
66.0938
62.0015
57.2213
52.6889
49.4525
48.0225
47.9253
47.7683
45.8513
41.028
33.3407
24.0405
14.9452
7.4803
1.96905
-2.38021
-6.74204
-11.6132
-16.0813
-17.9356
-14.6602
-4.81773
10.9453
29.8808
48.1917
62.6419
71.8853
76.8134
79.7588
83.0148
87.5012
92.3038
95.3138
94.5702
89.5248
81.513
73.1714
67.1477
64.8281
65.7853
68.2177
70.0883
70.2848
69.1379
68.0344
68.4008
70.7043
74.092
76.8916
77.6611
76.1275
73.4121
71.3707
71.4366
73.6881
76.7581
78.7047
78.3511
76.2567
74.6348
76.1217
82.0014
90.8989
98.7868
100.494
92.0791
72.9213
46.4467
19.069
-2.21059
-12.446
-10.4536
1.10318
17.1398
32.3092
42.8819
47.618
47.4783
44.5753
41.0141
38.1602
36.5183
36.0474
36.5662
37.9631
40.1347
42.7863
45.3096
46.8856
46.8003
44.8139
41.3648
37.4603
34.2585
32.5094
32.1249
32.1153
30.9822
27.436
21.1217
12.9845
5.04456
-0.376156
-1.64081
1.47849
7.71416
14.9128
21.0294
24.9792
26.9013
27.7269
28.3611
29.0151
29.1199
27.8618
24.9485
21.0317
17.4223
15.2316
14.5237
14.1464
12.5043
8.86399
4.28645
1.35627
2.5855
8.33036
15.6507
19.2679
14.6347
1.69787
-12.912
-17.1296
1.63178
49.7802
122.331
202.228
265.313
289.295
262.902
190.993
93.1617
-3.69772
-75.518
-109.421
-106.818
-80.379
-46.8836
-19.6373
-3.92838
2.88508
7.49613
15.5416
28.0651
41.152
48.4912
45.1356
30.33
8.01537
-15.0287
-32.2407
-39.9232
-38.2853
-30.6396
-21.4293
-14.1916
-10.3771
-9.34875
-9.26272
-8.20642
-5.02826
0.387099
7.31058
14.5729
20.9612
25.5209
27.7759
27.8757
26.6166
25.2558
25.1068
27.0458
31.1614
36.7562
42.7331
48.1805
52.836
57.1693
62.0398
68.1327
75.5001
83.4605
90.887
96.6968
100.266
101.581
101.122
99.6227
97.8635
96.5602
96.2913
97.3692
99.645
102.365
104.256
103.925
100.458
93.9249
85.4841
76.9389
69.93
65.1505
62.0031
58.8885
53.9797
46.0785
35.1316
22.1861
8.88257
-3.20369
-13.0341
-20.2255
-24.8734
-27.2772
-27.7557
-26.6185
-24.2346
-21.0949
-17.812
-15.0698
-13.564
-13.9412
-16.6937
-21.973
-29.3622
-37.7481
-45.4581
-50.7232
-52.3283
-50.1449
-45.236
-39.4141
-34.433
-31.2172
-29.5355
-28.284
-26.2023
-22.6036
-17.711
-12.4414
-7.81348
-4.36774
-1.94948
0.0450956
2.15532
4.42791
6.3531
7.19812
6.51551
4.49864
1.95762
-0.0736353
-0.867188
-0.359984
0.857984
1.90819
2.1258
1.41885
0.296965
-0.426721
-0.0802163
1.52385
4.02163
6.72083
8.96626
10.4347
11.2054
11.5975
11.9094
12.2478
12.5613
12.8471
13.3649
14.6695
17.3806
21.788
27.523
33.5214
38.352
40.7691
40.211
36.9848
32.0581
26.5952
21.5024
17.2065
13.7241
10.8972
8.60253
6.81206
5.52582
4.69857
4.26415
4.24596
4.83239
6.29149
8.71833
11.7668
14.5872
16.0995
15.5162
12.8396
9.01807
5.61939
4.15023
5.36847
8.9471
13.6547
17.9336
20.5584
21.0531
19.7165
17.3351
14.7964
12.8072
11.7939
11.9308
13.1941
15.3838
18.1315
20.9544
23.3805
25.1011
26.0636
26.4396
26.4862
26.386
26.171
25.7735
25.1625
24.467
23.9989
24.1479
25.2017
27.1763
29.7361
32.2412
33.9125
34.0713
32.389
29.0615
24.8238
20.7566
17.9123
16.8881
17.537
18.9788
19.9502
19.3607
16.7975
12.7324
8.32199
4.89836
3.40133
4.02311
6.21507
9.02121
11.5552
13.396
14.7419
16.2821
18.8474
22.9654
28.4594
34.2264
38.2969
38.2228
31.7319
17.4727
-4.40521
-32.0684
-62.3191
-91.3339
-115.589
-132.683
-141.837
-143.946
-141.177
-136.199
-131.206
-127.028
-122.742
-116.112
-104.945
-88.8854
-70.7135
-56.097
-51.3082
-59.5087
-77.3337
-93.9382
-93.9079
-63.6214
1.40502
91.7878
185.123
253.009
271.799
232.49
145.134
35.4839
-64.8407
-130.323
-150.363
-131.289
-91.2315
-50.8834
-24.7244
-16.5789
-20.7985
-27.5032
-28.6158
-21.6039
-9.54136
1.77425
7.55246
6.46154
0.765887
-5.46064
-8.71848
-7.69479
-3.43308
1.70582
5.47881
6.76802
5.77157
3.52252
1.19612
-0.360942
-0.711772
0.355941
3.02334
7.45151
13.6058
21.0529
28.9259
36.1502
41.8507
45.7308
48.2085
50.2133
52.735
56.3569
61.0194
66.1381
70.9979
75.1872
78.8175
82.4009
86.4729
91.2021
96.2384
100.895
104.548
106.983
108.473
109.516
110.43
111.059
110.811
109.019
105.379
100.197
94.2445
88.3222
82.7746
77.2813
71.0618
63.3881
54.1116
43.8977
34.0291
25.8794
20.3308
17.423
16.3856
16.0096
15.1645
13.2337
10.3075
7.09258
4.60632
3.78284
5.12777
8.53147
13.2957
18.3591
22.6374
25.3496
26.2096
25.4231
23.521
21.1269
18.7665
16.774
15.283
14.2489
13.4719
12.6378
11.4222
9.671
7.59045
5.81769
5.26261
6.72801
10.4664
15.9146
21.7899
26.5468
28.9867
28.7147
26.2114
22.501
18.6153
15.1456
12.098
9.07124
5.60532
1.48761
-3.11721
-7.71471
-11.6183
-14.097
-14.5217
-12.5449
-8.31182
-2.61139
3.18913
7.5218
9.2283
8.12814
5.2045
2.21651
0.856505
1.86484
4.59778
7.33262
8.18899
6.17855
1.79695
-3.18377
-6.60887
-7.01065
-4.24712
0.633337
6.17651
11.4458
16.5075
22.1905
29.303
37.8363
46.7012
54.2015
58.9708
60.7777
60.6587
60.244
60.6621
61.7142
61.892
59.3147
53.0668
44.1036
35.0759
29.0464
27.78
30.6432
34.8819
37.2546
36.1146
32.6179
30.1159
31.851
38.2348
45.5234
47.1707
37.67
17.0555
-6.60947
-18.8191
-4.40271
44.7457
123.707
213.726
287.735
320.347
298.092
225.258
122.587
19.3132
-57.9012
-94.3031
-90.8173
-61.1812
-24.4212
3.49581
15.1387
12.3485
2.82216
-5.07486
-6.51068
-1.65191
5.69985
11.0058
11.6443
8.02978
2.92672
-0.353849
0.236304
4.58078
10.7075
15.9679
18.3784
17.4501
14.1784
10.3201
7.41203
6.05869
5.81743
5.66968
4.75567
2.93215
0.839011
-0.542068
-0.553234
0.665409
2.19628
2.86865
1.99282
-0.122527
-2.17862
-2.43092
0.521652
7.1196
16.6982
27.8363
38.9559
48.8374
56.8337
62.7954
66.8972
69.5549
71.472
73.6684
77.289
83.126
91.0366
99.6208
106.48
109.096
105.98
97.5221
86.0129
74.7386
66.5129
62.3696
61.092
59.8496
55.6481
46.8753
34.1748
20.2212
8.52431
1.85918
1.07345
4.80564
10.1867
14.1394
14.6504
11.4651
5.96702
0.389862
-3.2179
-3.8069
-1.60918
2.1482
5.88705
8.34933
9.00833
8.09573
6.31253
4.4222
2.93976
2.03953
1.6667
1.72998
2.22971
3.24106
4.78
6.66292
8.47845
9.72016
10.0238
9.37758
8.17566
7.06182
6.62485
7.09083
8.16977
9.14629
9.19108
7.76529
4.94133
1.48942
-1.33024
-2.21161
-0.322833
4.30352
10.6819
17.1509
21.9346
23.781
22.4232
18.6713
14.0896
10.3906
8.79172
9.58999
12.1103
15.021
16.8742
16.6617
14.1954
10.1993
6.09175
3.52408
3.81046
7.43215
13.8087
21.4661
28.5911
33.7781
36.6411
37.9768
39.3498
42.2672
47.351
53.9493
60.4108
64.8828
66.1967
64.3596
60.4187
55.8429
51.8356
48.9807
47.335
46.748
47.0492
47.9221
48.6356
48.0427
45.1301
39.9411
34.2114
30.9772
32.9448
40.3281
49.5715
54.2706
48.5184
31.3086
9.48559
-3.08754
9.2241
56.0014
134.085
225.821
303.99
341.892
324.286
254.086
151.567
46.345
-34.1799
-74.6661
-75.7821
-51.1407
-19.4415
4.00897
12.5336
8.3584
-1.14072
-8.53824
-10.041
-6.30865
-0.752948
3.13151
3.73145
1.70311
-1.00721
-2.60166
-2.39971
-0.916274
0.754776
1.71032
1.67817
0.970852
0.126753
-0.452339
-0.650001
-0.556155
-0.301314
0.0389915
0.415987
0.726016
0.792558
0.467475
-0.21036
-0.939297
-1.27175
-0.900976
0.0537059
0.98707
1.09136
-0.122448
-2.37534
-4.58658
-5.39736
-4.04137
-1.05763
1.68353
1.84965
-1.90764
-8.68218
-15.0254
-16.0236
-7.40695
12.2659
40.4658
71.2707
97.508
113.509
117.199
110.58
98.4459
86.0598
76.9288
71.7038
68.5644
64.6997
58.0114
48.1741
36.6285
25.6785
17.2875
12.2355
10.0134
9.39142
9.24974
9.16672
9.45446
10.6749
12.9755
15.6845
17.4534
16.9131
13.4971
7.95603
2.22161
-1.38272
-1.22716
2.78782
9.08649
15.0648
18.2261
17.2564
12.5318
5.85297
-0.416154
-4.35465
-5.17293
-3.32745
-0.108099
3.03127
5.07559
5.76408
5.56366
5.37748
6.12399
8.3241
11.8207
15.7374
18.7397
19.5623
17.632
13.5091
8.88531
6.04509
6.96192
12.4209
21.596
32.3194
41.9413
48.3835
50.887
50.1243
47.6736
45.1702
43.5809
42.9319
42.5535
41.6296
39.721
36.9968
34.1032
31.7977
30.5679
30.4213
30.9127
31.3552
31.1016
29.7879
27.4726
24.6455
22.102
20.6985
21.0389
23.1909
26.563
30.0455
32.4187
32.8848
31.4741
29.0845
27.0659
26.502
27.5458
29.1959
29.7091
27.502
22.0803
14.4523
6.71832
0.991739
-1.75602
-2.20773
-2.16894
-3.2253
-5.40974
-6.84382
-4.8327
2.02637
11.9916
20.0181
19.9785
8.55418
-11.191
-28.8887
-29.9318
-1.86526
58.5752
141.318
224.323
280.654
288.617
240.65
146.917
31.9106
-74.5399
-147.92
-176.878
-165.296
-128.387
-85.1983
-51.1404
-33.5348
-31.3665
-38.3496
-47.1907
-52.9289
-54.1996
-52.5196
-50.5445
-50.4059
-52.8234
-57.093
-61.6337
-64.6805
-64.8426
-61.433
-54.5783
-45.1318
-34.4128
-23.8264
-14.4894
-7.00907
-1.5044
2.18041
4.23466
4.7887
4.02769
2.39802
0.694226
-0.127248
0.632673
3.00525
6.2558
9.25325
11.1746
12.1587
13.4814
17.0504
24.4064
35.7422
49.5107
62.9162
73.1153
78.5374
79.6306
78.6121
78.3236
80.7755
86.1423
92.7343
97.946
99.6614
97.3535
92.2972
86.8036
82.9164
81.2932
80.8805
79.5452
75.3054
67.4877
57.186
46.7824
38.7918
34.6378
33.9921
34.9953
35.2198
32.8634
27.5709
20.5057
13.6882
8.98437
7.26648
8.13306
10.2599
12.1333
12.763
12.0367
10.6107
9.46929
9.42539
10.8012
13.3853
16.6044
19.7682
22.2601
23.6304
23.6228
22.1866
19.5051
16.0219
12.424
9.54827
8.20602
8.95635
11.8817
16.4384
21.4651
25.4137
26.8084
24.8279
19.7911
13.2837
7.75234
5.62067
8.24859
15.2143
24.3235
32.4358
36.786
36.1848
31.5037
25.1848
20.0203
17.8318
18.7293
21.3063
23.6085
24.2936
23.3199
21.8006
21.159
22.1256
24.1924
25.8498
25.4618
22.2582
16.8627
11.0536
6.89537
5.72466
7.53461
11.0596
14.4731
16.3029
16.0967
14.5487
13.0967
13.2456
15.9544
21.3233
28.6436
36.7142
44.2595
50.299
54.3661
56.528
57.2086
56.8816
55.7718
53.7384
50.4499
45.7986
40.3129
35.2411
32.1193
31.9538
34.4828
38.0683
40.473
40.2051
37.6055
34.8077
34.2831
36.6489
39.1732
36.3735
23.069
-1.33849
-29.7926
-48.1254
-40.0604
4.91945
84.4501
180.856
265.544
309.12
293.11
217.996
103.716
-17.7831
-114.662
-166.575
-170.512
-139.094
-92.9325
-51.1572
-24.5247
-13.6519
-12.1105
-11.875
-7.98269
-0.306043
7.76464
12.3013
11.491
6.56415
0.814279
-2.40871
-1.46084
2.98322
8.6025
12.8306
14.1584
12.7118
9.95162
7.79218
7.65843
9.92891
13.9513
18.5188
22.5026
25.3154
27.0154
28.0602
28.9016
29.6678
30.1138
29.8546
28.7317
27.0867
25.7661
25.8344
28.1328
32.907
39.6867
47.4643
55.07
61.5629
66.4749
69.8485
72.1072
73.8555
75.6872
78.035
81.0556
84.5505
87.948
90.3918
90.9503
88.8998
83.974
76.4659
67.1279
56.9171
46.7077
37.1053
28.4259
20.8056
14.3332
9.10383
5.16202
2.39199
0.459004
-1.12035
-2.7841
-4.69812
-6.6226
-7.96062
-7.98923
-6.18219
-2.48641
2.57093
8.00017
12.6607
15.6596
16.6921
16.1872
15.1822
14.9446
16.4717
20.0671
25.1886
30.6614
35.1833
37.8968
38.7505
38.4607
38.0825
38.4115
39.5399
40.8219
41.2907
40.3168
38.1428
35.9605
35.4156
37.7341
42.9085
49.4263
54.7974
56.7277
54.3699
48.9247
43.1182
39.6924
39.7079
41.7388
42.652
39.7128
32.7677
24.9385
20.989
24.0336
32.6272
40.4929
39.7843
26.4732
4.61622
-13.7213
-13.8981
12.8169
62.3938
117.29
153.206
150.494
104.356
28.2392
-51.6988
-108.363
-125.669
-104.653
-61.0608
-16.3573
12.6623
20.3265
12.0151
-1.24538
-9.73074
-9.59535
-3.19279
4.04602
7.64612
6.552
2.98264
0.362842
0.96722
4.71099
9.54148
12.8719
13.0457
10.0454
5.26243
0.674222
-2.03355
-2.01662
0.601248
4.90723
9.52135
12.966
14.0543
12.2635
7.99469
2.58186
-2.04339
-3.98096
-2.07151
3.61777
11.7779
20.3662
27.4449
31.9874
34.285
35.7645
38.3034
43.3646
51.3526
61.4703
72.1068
81.5322
88.5505
92.8202
94.7475
95.0778
94.4376
93.0627
90.8132
87.4131
82.7479
77.0529
70.902
65.016
59.9807
55.9948
52.7447
49.4648
45.1903
39.1439
31.1355
21.8087
12.583
5.23764
1.2485
1.13858
4.15374
8.46714
11.8775
12.7119
10.5138
6.17947
1.47132
-1.84555
-2.80818
-1.60607
0.666714
2.67983
3.56703
3.28359
2.46568
1.92694
2.12021
2.88298
3.59314
3.61054
2.71835
1.2939
0.110598
-0.108332
0.876605
2.64752
4.31375
4.95761
4.10915
2.00914
-0.467708
-2.18816
-2.25439
-0.389994
2.94724
6.76061
9.91641
11.5703
11.4408
9.83454
7.44294
5.02411
3.11918
1.91479
1.28275
0.943027
0.650274
0.312271
-2.3387e-005
-0.129915
0.0599051
0.614585
1.47534
2.5175
3.60238
4.60932
5.43621
5.98389
6.15216
5.86741
5.13834
4.11172
3.08991
2.48296
2.69748
3.99783
6.39539
9.6178
13.1804
16.5415
19.2879
21.2858
22.745
24.1778
26.265
29.667
34.8282
41.8214
50.2789
59.4376
68.3005
75.8723
81.3888
84.4549
85.045
83.3974
79.8986
75.0521
69.5442
64.3007
60.371
58.5558
58.8993
60.3697
61.0808
59.1608
53.9287
46.6756
40.3577
38.0296
40.6738
45.7286
47.5744
40.3362
21.9537
-2.65638
-21.5767
-19.9357
13.1846
78.0687
161.471
239.635
286.6
284.433
230.798
140.31
38.9573
-45.891
-95.3916
-104.836
-83.0028
-46.3299
-11.1842
12.1227
21.3567
20.4696
15.6679
11.8372
10.9162
12.3713
14.7639
17.1058
19.2373
21.3327
23.22
24.1857
23.4386
20.845
17.3191
14.4981
13.8394
15.7047
19.0423
21.9235
22.6608
20.8558
17.7386
15.5582
16.3337
20.6657
27.2995
33.7283
37.5368
37.7491
35.4135
33.0662
33.347
37.5431
44.9005
53.1141
59.7197
63.5517
65.3645
67.1918
70.7846
76.0708
80.632
80.6437
72.8709
56.6552
34.7663
12.5743
-4.09629
-11.3645
-8.7552
0.936028
13.1934
23.8671
30.74
33.9082
34.9963
35.8165
37.2652
38.9924
39.8746
38.8861
35.8117
31.4205
27.0703
24.0267
22.8904
23.4119
24.7297
25.8448
26.0577
25.1634
23.3664
21.0324
18.4581
15.7931
13.1319
10.6754
8.82069
8.08406
8.86872
11.2001
14.5913
18.1529
20.9363
22.3685
22.5657
22.3475
22.9134
25.3087
29.9244
36.2709
43.1347
49.0387
52.7778
53.7808
52.1611
48.5045
43.5769
38.1399
32.9359
28.7351
26.2602
25.8926
27.2757
29.1223
29.5256
26.8164
20.608
12.3886
5.09753
1.6319
2.93303
6.80096
8.46652
3.13436
-10.4762
-27.4725
-36.8985
-25.3926
16.6288
88.8977
178.449
262.036
313.532
313.623
257.707
158.458
41.7275
-62.6129
-131.065
-153.86
-136.514
-95.4803
-50.3376
-16.1562
0.868156
3.28567
-1.28908
-5.07326
-3.79157
2.25364
9.6046
14.2987
14.1704
9.74087
3.55168
-1.40272
-3.18805
-1.65879
1.79459
5.16852
6.88034
6.42278
4.42187
2.18676
1.03631
1.72236
4.1727
7.61618
10.9968
13.4801
14.8316
15.5024
16.3857
18.3535
21.796
26.4034
31.325
35.6584
39.0363
41.9963
45.8939
52.331
62.328
75.6284
90.5064
104.234
114.058
118.273
116.919
111.779
105.658
101.273
100.22
102.46
106.504
110.16
111.473
109.458
104.332
97.233
89.601
82.542
76.4302
70.8872
65.0922
58.2592
50.0617
40.8346
31.4756
23.0966
16.5775
12.2179
9.64787
8.04912
6.5914
4.87731
3.16708
2.25107
3.01148
5.88295
10.4914
15.6766
19.9175
21.9722
21.4289
18.9028
15.7816
13.6416
13.6058
15.9256
19.949
24.4508
28.1479
30.1666
30.2849
28.8912
26.7217
24.5097
22.6895
21.2553
19.8147
17.8116
14.838
10.9197
6.64885
3.08062
1.39273
2.41653
6.23043
12.0112
18.2464
23.2513
25.7865
25.5089
23.06
19.7584
17.0474
15.9448
16.7205
18.8983
21.5248
23.5546
24.1949
23.1174
20.5199
17.0587
13.6698
11.2974
10.5702
11.5252
13.5164
15.4117
16.0613
14.858
12.1152
9.03335
7.21613
7.93963
11.5347
17.2043
23.3795
28.4288
31.3488
32.0803
31.3147
29.9351
28.4346
26.643
23.9022
19.5734
13.5786
6.66948
0.261868
-4.10457
-5.44511
-3.83636
-0.496587
2.65721
3.85934
2.42676
-0.679357
-3.06377
-2.00236
3.89448
13.2477
21.6528
23.2013
13.538
-6.77951
-30.4448
-44.624
-35.5109
5.24637
75.0575
158.762
232.369
271.265
259.678
197.317
100.078
-5.66226
-92.7505
-142.753
-151.286
-127.318
-87.4283
-48.154
-20.0157
-5.46636
-0.805076
-0.199684
0.667917
3.06743
6.01165
8.25494
9.9312
12.8011
19.1278
30.0724
44.7079
60.2695
73.4641
82.0542
85.8406
86.5755
86.9506
89.2614
94.4336
101.817
109.723
116.34
120.562
122.374
122.735
123.072
124.655
128.119
133.276
139.297
145.166
150.23
154.592
159.129
165.047
173.138
183.111
193.453
202.062
207.447
209.887
211.722
216.279
225.654
238.364
248.274
245.848
221.689
171.066
97.3248
12.2814
-67.0208
-124.089
-148.88
-141.217
-110.236
-70.2081
-34.747
-12.0223
-2.9301
-2.60666
-4.08295
-2.04562
5.06137
15.271
25.0853
31.8813
35.411
37.7515
41.934
50.0976
62.1313
75.4247
85.7927
89.1363
83.1346
68.2889
47.9045
26.9994
10.5428
1.70457
0.820931
5.51122
11.8954
16.3657
17.1026
14.6424
11.2713
9.60334
11.1019
15.3025
20.1035
22.9194
22.054
17.5758
11.2788
5.80729
3.43155
5.08237
10.06
16.4654
22.0703
25.2013
25.2873
22.9234
19.5157
16.6936
15.7078
16.9956
20.0358
23.5418
25.9492
26.0476
23.5232
19.1744
14.6716
11.9277
12.334
16.2027
22.67
30.1023
36.8094
41.7299
44.7894
46.803
49.0102
52.4796
57.6429
64.1285
70.929
76.8172
80.8518
82.7891
83.2355
83.4386
84.7408
87.8807
92.462
96.9125
99.0735
97.2339
91.1233
82.2992
73.6136
67.9435
66.8279
69.7851
74.7315
79.2586
81.9448
82.794
82.4433
80.6751
75.4409
63.5122
42.9359
16.1372
-8.36946
-17.4469
1.72684
55.0003
136.076
225.919
297.976
327.648
302.088
225.916
120.02
13.7873
-65.8814
-103.985
-101.343
-71.8016
-34.631
-5.9822
6.73795
5.57958
-1.57789
-6.47416
-4.78356
2.57129
11.1398
16.1895
15.4683
10.1021
3.4889
-0.854358
-1.14367
2.06544
6.61596
10.1817
11.4835
10.6694
8.82533
7.08438
5.94817
5.19938
4.35969
3.31193
2.64196
3.46842
6.86051
13.1896
21.7883
31.11
39.3102
44.9688
47.6288
47.9416
47.3962
47.7765
50.562
56.4727
65.2797
75.9183
86.8526
96.5756
104.085
109.161
112.344
114.607
116.858
119.515
122.337
124.588
125.438
124.36
121.295
116.536
110.421
103.085
94.4557
84.5157
73.6339
62.7088
52.9504
45.3696
40.2578
36.993
34.3379
31.1041
26.8097
21.9368
17.6103
14.8704
13.9686
14.1238
13.916
12.1106
8.43901
3.86318
0.144595
-1.06452
0.891531
5.29691
10.4041
14.2935
15.7814
14.9006
12.741
10.7903
10.1692
11.162
13.2334
15.4378
16.9351
17.3325
16.7274
15.523
14.1916
13.1279
12.6118
12.8078
13.7134
15.0594
16.2572
16.5098
15.1153
11.8513
7.22852
2.43005
-1.09477
-2.22262
-0.654354
2.93045
7.14571
10.4709
11.8551
11.083
8.76415
5.98645
3.81972
2.8954
3.22481
4.29669
5.37437
5.84315
5.45695
4.39034
3.09221
2.02467
1.42232
1.19791
1.04899
0.712402
0.221738
-0.000103029
0.691103
2.77898
6.17936
10.0541
13.016
13.7027
11.4832
6.93311
1.77892
-1.75928
-1.97745
1.42597
7.06732
12.4187
14.9733
13.4717
8.53266
2.30688
-2.69486
-4.94403
-4.58726
-3.00723
-1.4676
0.27639
4.33941
13.4995
28.8999
48.0651
64.824
71.8865
65.2504
48.1834
32.1719
33.4004
65.6061
132.384
222.89
313.699
376.759
390.276
347.678
260.474
153.643
55.7068
-11.9402
-41.7423
-40.217
-22.4247
-3.97449
5.44753
4.38896
-2.40124
-8.3864
-9.29824
-4.87171
2.05826
7.93938
10.6704
10.3794
8.70315
7.36036
7.04859
7.27469
7.01904
5.62932
3.30587
0.916
-0.645248
-1.0618
-0.764679
-0.584364
-1.15074
-2.44324
-3.77028
-4.17277
-2.98944
-0.239633
3.39445
6.96252
9.7829
11.821
13.7127
16.4349
20.8093
27.0918
34.8396
43.0951
50.7803
57.1153
61.8911
65.5079
68.7911
72.6703
77.8406
84.5199
92.3825
100.69
108.577
115.37
120.81
125.055
128.46
131.229
133.13
133.435
131.157
125.481
116.195
103.895
89.8822
75.7774
63.0552
52.6724
44.9231
39.5177
35.7948
32.9561
30.252
27.1092
23.2209
18.6064
13.6208
8.87721
5.06997
2.7408
2.07402
2.81475
4.35874
5.98834
7.1612
7.73043
7.9994
8.58015
10.1039
12.8954
16.7451
20.8862
24.2093
25.6552
24.6428
21.3574
16.7629
12.3035
9.39008
8.8698
10.6997
13.9723
17.2954
19.3723
19.533
17.9827
15.6571
13.7557
13.1751
14.1136
16.0328
17.9826
19.1121
19.0933
18.2357
17.2403
16.739
16.8852
17.2303
16.9578
15.3441
12.1874
7.96749
3.6505
0.25141
-1.60982
-1.93237
-1.24706
-0.296806
0.325362
0.395683
0.0549197
-0.371595
-0.598909
-0.526554
-0.247232
0.0499276
0.203744
0.161599
-0.0130361
-0.191613
-0.253869
-0.149474
0.0736852
0.285458
0.334674
0.139934
-0.2306
-0.547535
-0.517513
0.0293176
0.958215
1.79252
1.90932
0.918789
-0.979724
-2.93387
-3.81808
-2.93587
-0.646102
1.56227
1.778
-1.10123
-6.32986
-11.268
-12.6703
-8.81528
-1.23965
5.27321
5.03292
-4.6734
-20.1699
-30.7535
-22.0629
17.3546
89.0929
181.157
269.984
328.173
334.98
285.017
191.104
79.7739
-18.6528
-81.1006
-99.1237
-79.8085
-40.4587
-0.0812714
28.2236
40.8291
42.2838
40.7056
42.6952
50.2906
61.0031
70.2466
74.4054
72.8045
67.7458
62.9312
61.3775
63.9941
69.4551
75.224
79.0299
79.9779
78.7968
77.2324
77.0186
79.0024
82.8364
87.3186
91.1266
93.5325
94.7403
95.7166
97.6484
101.333
106.808
113.362
119.882
125.301
128.916
130.455
129.922
127.387
122.86
116.332
107.898
97.8526
86.657
74.7985
62.64
50.3815
38.1699
26.283
15.2489
5.79386
-1.37743
-5.85299
-7.68466
-7.37214
-5.69122
-3.48141
-1.50019
-0.36117
-0.480433
-1.94317
-4.29481
-6.39464
-6.53208
-2.917
5.56146
18.6334
34.3987
49.7597
61.4363
67.1402
66.3685
60.451
51.8559
43.1296
35.9988
31.0212
27.8359
25.736
24.165
22.8694
21.7198
20.4419
18.5383
15.5095
11.2364
6.23981
1.58612
-1.56887
-2.56123
-1.58654
0.375968
2.05777
2.54378
1.7074
0.204449
-0.953319
-0.989808
0.214071
2.09214
3.74848
4.47367
4.12223
3.14778
2.2972
2.15716
2.81944
3.84999
4.56492
4.44084
3.41802
1.92587
0.627565
0.04248
0.269957
0.969854
1.59923
1.75505
1.41803
0.961952
0.938709
1.78046
3.59718
6.17343
9.13541
12.1572
15.0667
17.798
20.2548
22.2131
23.3602
23.4639
22.5575
21.0023
19.3605
18.1385
17.5532
17.4706
17.5554
17.5357
17.4044
17.4208
17.9068
18.9756
20.3866
21.6444
22.3035
22.3001
22.0974
22.537
24.4548
28.2577
33.6692
39.7539
45.1814
48.5975
48.9701
45.8433
39.4909
30.9485
21.8568
14.0419
8.869
6.60375
6.16367
5.56964
3.05989
-1.64933
-6.76684
-9.12467
-6.11265
2.0911
11.4512
15.3142
7.93628
-11.2075
-34.7734
-48.6613
-37.313
8.67146
86.1328
177.694
256.458
295.663
279.317
209.052
103.986
-6.45736
-93.5877
-139.527
-142.155
-113.345
-72.0193
-35.6767
-14.2109
-8.22357
-11.6363
-16.4902
-17.2481
-12.7317
-5.37633
1.13917
4.27889
3.82725
1.54323
-0.161703
0.397054
3.46574
8.00913
12.4401
15.4156
16.3057
15.234
12.8387
9.98639
7.58135
6.45844
7.26459
10.2683
15.156
20.9706
26.3319
29.9382
31.1646
30.4604
29.2986
29.6344
33.0817
40.1851
50.1391
61.1001
70.9497
78.1532
82.3202
84.2312
85.3585
87.1389
90.3507
94.8667
99.8531
104.275
107.435
109.285
110.355
111.368
112.719
114.118
114.573
112.785
107.77
99.4258
88.7256
77.4091
67.2669
59.3545
53.5326
48.5899
42.9136
35.3784
25.9923
15.9572
7.10763
1.02898
-1.67316
-1.57352
-0.0207408
1.6142
2.59645
3.03671
3.58054
4.81559
6.78422
8.89544
10.2651
10.2473
8.817
6.579
4.42237
3.05501
2.70413
3.13548
3.92734
4.78006
5.64639
6.61675
7.67804
8.55588
8.78864
8.01268
6.27808
4.17292
2.63992
2.55628
4.29653
7.51667
11.2766
14.4321
16.0897
15.901
14.0848
11.2205
7.96892
4.88168
2.36728
0.759733
0.365102
1.3877
3.74155
6.86559
9.70623
10.9694
9.60249
5.3181
-1.09506
-7.86995
-12.7931
-13.9955
-10.6896
-3.54091
5.50348
13.8836
19.3456
20.759
18.5197
14.3856
10.8072
10.0057
13.1441
19.903
28.6218
36.9529
42.7738
44.996
43.9409
41.1325
38.6033
38.0278
40.0772
44.2784
49.4156
54.2414
58.1105
61.1985
64.1961
67.6635
71.4275
74.3992
74.976
71.8677
64.9328
55.5492
46.2405
39.6399
37.2455
38.5966
41.3766
42.5201
39.8681
33.52
26.0479
21.2341
21.7983
27.2973
33.5571
34.4029
25.2503
6.88948
-12.749
-20.4321
-2.9828
45.8918
120.554
203.069
268.471
293.921
267.929
195.473
96.5513
-1.32289
-73.3995
-106.255
-101.132
-71.1084
-34.0275
-4.77177
9.6704
10.7157
4.94927
-0.551381
-1.79351
1.11732
5.38862
8.02152
7.74633
5.45479
3.21545
2.74404
4.34322
6.865
8.55672
8.16234
5.60475
1.92144
-1.40088
-3.23374
-3.29176
-2.08053
-0.419573
1.13545
2.63899
4.70343
8.10598
13.2778
19.9391
27.0618
33.1908
36.9983
37.849
36.1408
33.2704
31.2196
31.9139
36.6044
45.5123
57.8557
72.2024
86.9567
100.757
112.651
122.073
128.748
132.646
134.033
133.507
131.9
129.983
128.089
125.881
122.46
116.839
108.57
98.1486
86.9458
76.6135
68.2735
61.9319
56.4741
50.2825
42.1575
32.043
21.1498
11.406
4.5295
1.22661
0.932352
2.20454
3.52482
4.05782
3.97246
4.19227
5.75573
9.15891
14.0296
19.2769
23.6001
26.0676
26.4735
25.3226
23.5007
21.8333
20.7653
20.2951
20.15
20.062
19.9717
20.0528
20.5623
21.6287
23.1163
24.6549
25.8174
26.3376
26.2361
25.7784
25.2921
24.96
24.7164
24.3079
23.4721
22.1062
20.3115
18.2831
16.1367
13.8165
11.1819
8.23666
5.33863
3.19719
2.57831
3.83317
6.52422
9.42482
10.9856
10.0826
6.65564
1.8526
-2.46153
-4.61428
-3.97634
-1.27552
1.82082
3.63701
3.41166
1.68228
-0.0927059
-0.452557
1.15314
4.01025
6.57151
7.43168
6.26974
4.18333
3.18652
5.1317
10.6613
18.7879
27.3423
34.027
37.4673
37.6737
35.6967
32.7564
29.4416
25.5001
20.33
13.7863
6.67854
0.523527
-3.3568
-4.79417
-5.05477
-6.09955
-9.19017
-13.77
-17.5334
-17.9067
-14.1616
-8.71687
-6.39486
-11.5166
-24.1878
-38.0379
-41.332
-21.7541
26.9585
99.7884
179.685
242.439
265.587
237.566
162.96
61.3242
-39.9595
-115.668
-151.243
-146.439
-113.122
-68.8989
-29.7955
-5.1137
3.90349
1.95486
-4.12815
-8.81575
-9.59459
-6.77908
-2.16464
2.43011
5.98856
8.32738
9.64973
10.0893
9.55725
7.91448
5.27038
2.15728
-0.559002
-1.99832
-1.64468
0.419669
3.55415
6.86525
9.63293
11.646
13.2719
15.2171
18.099
22.0619
26.6583
31.0797
34.622
37.1268
39.1355
41.6491
45.6096
51.389
58.5746
66.1764
73.137
78.8514
83.4026
87.3902
91.4731
95.9128
100.396
104.234
106.805
107.959
108.117
108.007
108.174
108.571
108.463
106.734
102.427
95.2558
85.8076
75.3504
65.3385
56.8522
50.2208
44.9761
40.1332
34.665
27.979
20.2162
12.269
5.50414
1.28101
0.425265
2.85186
7.49628
12.6111
16.3437
17.3859
15.4415
11.3209
6.62645
3.16243
2.3126
4.6209
9.70229
16.4593
23.4657
29.3492
33.0607
34.0032
32.0662
27.6162
21.4611
14.7558
8.80146
4.73142
3.1535
3.88868
5.95862
7.90163
8.35482
6.68934
3.40799
0.0694933
-1.30544
0.860677
6.88243
15.4884
24.2073
30.3413
32.0993
29.3506
23.6232
17.342
12.6856
10.641
10.72
11.448
11.3189
9.67244
7.01509
4.63566
3.76772
4.8001
6.99473
8.87085
9.03275
6.96936
3.37424
-0.196516
-2.14632
-1.69936
0.657556
3.38635
4.65518
3.25779
-0.76207
-6.07927
-10.6468
-12.561
-10.8209
-5.65275
1.6946
9.52525
16.3384
21.2602
24.1433
25.3938
25.6841
25.6893
25.894
26.4383
26.9868
26.6804
24.2977
18.7002
9.46372
-2.60864
-15.4592
-26.4246
-33.3705
-35.7497
-34.9332
-33.4843
-33.6645
-36.0218
-39.0125
-40.0922
-37.7817
-33.4252
-31.2585
-36.2126
-50.2648
-69.3254
-82.8406
-77.1783
-41.878
23.9832
108.65
189.96
242.74
248.438
202.782
117.907
17.9016
-70.2917
-126.59
-143.958
-128.781
-95.9416
-61.4349
-36.079
-22.866
-18.3675
-16.637
-13.158
-6.87891
0.234768
5.27651
6.55722
4.57734
1.46946
-0.48215
-0.201122
1.74905
3.79635
4.53638
3.67122
2.15655
1.52986
2.88395
6.12725
9.96612
12.6028
12.7314
10.2603
6.36405
2.85403
1.238
1.99736
4.47409
7.40397
9.76557
11.4408
13.2982
16.6493
22.3932
30.3517
39.1929
47.0116
52.2643
54.5568
54.8636
55.0618
57.0235
61.721
68.7691
76.5879
83.0708
86.4302
85.867
81.8254
75.7866
69.714
65.3497
63.5877
64.1228
65.5083
65.6461
62.5768
55.2902
44.2156
31.1439
18.5695
8.72236
2.73418
0.335092
0.211573
0.810303
1.13822
1.12839
1.40579
2.64327
4.93356
7.57813
9.42727
9.56147
7.8934
5.31628
3.29563
3.12854
5.2826
9.17067
13.4616
16.7304
18.0859
17.4617
15.4704
12.9666
10.5958
8.57291
6.76819
4.99424
3.29089
2.03025
1.78559
3.04482
5.92928
10.0704
14.7153
19.0218
22.4181
24.8656
26.8986
29.4016
33.1962
38.6003
45.1572
51.6737
56.5822
58.4935
56.7114
51.4893
43.9232
35.5447
27.8078
21.693
17.5663
15.2905
14.4651
14.6482
15.4702
16.6508
17.9844
19.3515
20.7458
22.2577
23.9639
25.7528
27.1959
27.596
26.26
22.8973
17.9316
12.5098
8.13542
6.05962
6.72405
9.55265
13.2268
16.327
18.0265
18.4861
18.7507
20.199
23.8275
29.7219
36.9764
44.0899
49.64
52.902
54.1128
54.2515
54.4448
55.2923
56.4557
56.743
54.6765
49.2826
40.7078
30.3214
20.2161
12.3275
7.6133
5.71498
5.2792
4.75773
3.24101
0.867174
-1.40145
-2.47299
-1.86101
-0.0200941
1.90398
2.7389
1.95342
-0.0670485
-2.27897
-3.59234
-3.46017
-2.1141
-0.349676
0.965982
1.35361
0.897704
0.0867753
-0.53428
-0.670078
-0.375079
0.0652505
0.356284
0.367441
0.1669
-0.069808
-0.192575
-0.160972
-0.0405621
0.0653804
0.0912782
0.0431388
-0.0213079
-0.042631
-0.00236046
0.0678793
0.112166
0.090898
0.00922329
-0.0845064
-0.129412
-0.0935975
-0.00104018
0.0744857
0.0486241
-0.121017
-0.39943
-0.680528
-0.839015
-0.805846
-0.627946
-0.474086
-0.569355
-1.0729
-1.94437
-2.86105
-3.24101
-2.39534
0.220306
4.74027
10.7292
17.2326
23.0686
27.2759
29.5325
30.3304
30.778
32.0782
34.9126
39.0508
43.4173
46.6187
47.6754
46.5582
44.211
42.0142
40.9638
41.028
41.07
39.4158
34.7839
27.0688
17.5391
8.32394
1.45432
-2.033
-2.46569
-1.21537
0.0989623
0.426609
-0.312874
-1.41127
-1.96761
-1.51126
-0.284952
0.949253
1.42434
0.864797
-0.342571
-1.39714
-1.5851
-0.714745
0.783815
2.15304
2.81142
2.75232
2.58828
3.20607
5.23312
8.62869
12.6375
16.1286
18.1227
18.2151
16.6871
14.2918
11.884
10.1176
9.33892
9.64961
11.0013
13.207
15.8708
18.3562
19.9179
20.0094
18.6105
16.3421
14.2276
13.1723
13.4475
14.5022
15.2619
14.7693
12.7954
10.0373
7.75808
7.06466
8.25327
10.6178
12.84
13.7272
12.8613
10.789
8.67385
7.6504
8.27112
10.3404
13.1619
15.9767
18.2959
19.9538
20.9339
21.1682
20.5003
18.8485
16.4298
13.8475
11.9291
11.3791
12.4373
14.7428
17.4778
19.7113
20.7662
20.4543
19.1143
17.4836
16.4762
16.924
19.3202
23.6159
29.1512
34.8009
39.3416
41.9111
42.3336
41.1057
39.0154
36.6025
33.8085
30.0818
24.9157
18.4749
11.8417
6.60861
3.982
3.95451
5.16924
5.71365
4.44812
1.99632
0.579966
2.53851
8.29826
15.1569
18.0436
12.3676
-2.30878
-19.9191
-28.7408
-15.8498
26.4125
94.9993
174.768
242.508
275.197
259.088
195.601
101.28
1.74181
-77.7378
-120.961
-125.294
-100.472
-62.8745
-28.2468
-6.12973
2.01269
0.914173
-2.50257
-3.01968
0.821453
7.01479
12.0435
13.1808
9.94888
4.19889
-0.974233
-2.77736
0.0454371
6.77695
15.1554
22.3732
26.18
25.6582
21.4218
15.231
9.23005
5.13676
3.69843
4.5992
6.80189
9.12772
10.7954
11.6921
12.2999
13.3716
15.5504
19.1142
23.9287
29.5721
35.527
41.3438
46.7398
51.6479
56.2347
60.8761
66.0484
72.1161
79.0732
86.37
92.9726
97.7056
99.7693
99.183
96.8919
94.4193
93.1872
93.8268
95.8377
97.7879
97.9634
95.1344
89.0518
80.4445
70.5777
60.6597
51.4416
43.1885
35.9506
29.8715
25.2762
22.4578
21.3248
21.1919
20.9338
19.4816
16.4065
12.2374
8.28857
6.04732
6.43286
9.32131
13.5876
17.6274
20.0638
20.2621
18.4176
15.2413
11.4973
7.69129
4.07256
0.874524
-1.44961
-2.23423
-0.913271
2.53491
7.31545
11.9609
14.9015
15.2017
13.0675
9.81305
7.25902
6.84797
8.93522
12.6317
16.2821
18.3165
18.0167
15.7977
12.8884
10.6319
9.82005
10.4244
11.8186
13.2922
14.4981
15.5602
16.8127
18.3954
20.0096
21.0192
20.8306
19.2941
16.8561
14.3595
12.6246
12.0758
12.6275
13.8529
15.2693
16.5218
17.3643
17.5222
16.6359
14.4199
10.9836
7.07202
3.97085
3.00122
4.81773
8.91409
13.6898
17.1372
17.837
15.7299
12.2155
9.48473
9.42148
12.6564
18.2801
24.3547
28.9227
30.9467
30.6797
29.307
28.1262
27.7778
27.9768
27.8659
26.7156
24.488
21.8816
19.8322
18.8278
18.5498
18.1523
17.0384
15.5785
15.1438
17.2191
22.0235
27.5948
30.2659
26.7651
17.0977
6.5531
5.20718
24.3536
70.9641
142.674
226.048
299.671
341.359
336.666
284.913
199.914
104.901
23.8584
-26.9158
-43.4399
-33.2216
-9.95938
13.2891
29.1732
37.3323
42.0053
47.8756
56.6467
66.0723
71.5941
69.312
58.4547
42.0158
25.3621
13.7163
9.89287
13.3591
20.8914
28.2846
32.1746
31.1686
25.9683
18.6878
11.8518
7.52696
6.81644
9.71924
15.2518
21.7525
27.3423
30.5062
30.6602
28.4768
25.7471
24.7273
27.1796
33.5284
42.5627
51.8875
58.9577
62.2165
61.7872
59.3804
57.4738
58.1852
62.3931
69.5041
77.9102
85.8326
92.086
96.4024
99.2301
101.216
102.712
103.579
103.342
101.544
98.0423
93.0797
87.1105
80.5313
73.5036
65.9822
57.9169
49.4803
41.1575
33.617
27.421
22.7331
19.1994
16.0892
12.6496
8.50663
3.91165
-0.307772
-3.09342
-3.65563
-1.89587
1.45875
5.09837
7.66603
8.3534
7.27638
5.43396
4.24029
4.82582
7.43113
11.1968
14.4835
15.6093
13.6825
9.13738
3.69674
-0.263189
-0.691314
3.24244
10.7403
19.6549
27.3431
31.7227
32.0687
29.2067
25.0406
21.6555
20.4168
21.4678
23.8177
25.9251
26.4646
24.9076
21.6777
17.8678
14.7078
13.0591
13.1473
14.5977
16.686
18.6488
19.9181
20.2262
19.6013
18.304
16.7389
15.3486
14.4893
14.3062
14.657
15.1348
15.2053
14.4164
12.5984
9.96757
7.09397
4.75072
3.70226
4.49425
7.28783
11.7645
17.1286
22.2429
25.9154
27.2972
26.2637
23.5981
20.8255
19.688
21.4395
26.2772
33.21
40.4771
46.3495
49.9307
51.5473
52.5206
54.4364
58.2949
63.9851
70.3384
75.7039
78.7117
78.8316
76.4816
72.7048
68.6426
65.0715
62.1665
59.5071
56.2631
51.5096
44.6565
35.9267
26.6785
19.258
16.1564
18.6097
25.2792
31.9401
32.875
23.8414
5.41373
-15.1806
-25.3391
-11.7565
33.0758
105.494
189.392
260.463
294.779
278.256
212.792
116.115
15.2192
-63.7988
-105.059
-107.421
-82.6334
-48.5303
-20.8084
-7.20442
-6.30894
-10.7796
-12.6534
-7.7875
2.63804
13.8065
20.6951
21.1043
16.6623
11.5061
9.65639
12.7087
19.111
25.2866
27.8095
25.3298
19.2048
12.5991
8.6824
8.99008
12.8223
17.9016
21.7952
23.2412
22.6656
21.7068
22.1375
24.8647
29.5549
35.006
39.9437
43.7174
46.5075
48.9995
51.8076
55.046
58.2988
60.9577
62.6672
63.5783
64.264
65.3816
67.3112
69.9886
72.9978
75.8171
78.0343
79.4047
79.7633
78.9113
76.6065
72.6885
67.2456
60.6774
53.568
46.4195
39.4162
32.3898
25.0414
17.3012
9.59456
2.81516
-2.02512
-4.29802
-4.12638
-2.39028
-0.344631
0.953404
1.09604
0.415074
-0.318126
-0.387132
0.476255
2.01437
3.68926
5.0604
6.03757
6.85508
7.81104
8.9739
10.0733
10.6569
10.4048
9.3797
8.03184
6.94541
6.49277
6.62827
6.96033
7.04947
6.72356
6.18858
5.85479
5.99917
6.50553
6.87826
6.54146
5.23547
3.2455
1.29769
0.172823
0.273733
1.41469
2.95879
4.20706
4.78935
4.82163
4.75993
5.08184
6.02322
7.53105
9.41856
11.5573
13.924
16.4515
18.8092
20.3321
20.2352
18.0505
14.0322
9.23891
5.1693
3.0942
3.44126
5.58826
8.20386
9.95897
10.2126
9.28774
8.19562
7.98835
9.13558
11.292
13.5781
15.1823
15.9048
16.306
17.3725
19.914
24.0688
29.2287
34.4369
39.0121
43.0069
47.1924
52.545
59.5194
67.538
75.0218
79.9817
80.8609
77.1752
69.6195
59.6296
48.7066
37.9197
27.8336
18.7849
11.1744
5.4606
1.81757
-0.23073
-1.76715
-3.84328
-6.56088
-8.57762
-7.66455
-2.31443
6.45527
14.453
15.8169
6.48215
-12.0089
-30.739
-35.5026
-12.7
43.2662
124.764
211.068
274.73
291.95
252.48
164.451
51.7588
-54.9581
-129.701
-159.872
-148.902
-112.253
-69.3639
-35.5755
-17.4833
-13.0362
-15.2714
-17.1311
-14.8718
-8.84104
-1.98183
2.55472
3.23119
0.615491
-3.32964
-6.45683
-7.40376
-5.93918
-2.73856
1.10627
4.54217
6.82813
7.63345
7.02786
5.41221
3.40454
1.6927
0.885523
1.40307
3.42289
6.86456
11.386
16.3985
21.1506
24.9301
27.3639
28.6851
29.7875
31.9456
36.2609
43.0868
51.759
60.8392
68.8059
74.8542
79.3645
83.7448
89.6851
98.1893
108.892
120.03
129.103
133.908
133.433
128.204
119.941
110.741
102.205
94.9254
88.5465
82.3024
75.706
68.997
63.0947
59.0629
57.3714
57.369
57.3087
54.9999
48.8249
38.6286
25.9999
13.7362
4.69108
0.542837
1.0911
4.43931
7.96986
9.60757
8.72276
6.23007
3.87973
3.1677
4.47371
6.87912
8.72184
8.54324
5.89281
1.56821
-2.80373
-5.59012
-5.94019
-4.15678
-1.50832
0.384349
0.276325
-2.17916
-6.30949
-10.7139
-13.8228
-14.5005
-12.4689
-8.40534
-3.6776
0.1844
2.08106
1.75804
-0.138494
-2.4012
-3.8486
-3.88367
-2.74654
-1.32739
-0.630619
-1.17386
-2.65353
-4.07589
-4.29979
-2.69989
0.42648
3.96176
6.55692
7.40531
6.7774
6.00127
6.86448
10.7274
17.803
26.9795
36.2822
43.7417
48.2358
49.9042
49.9678
50.0864
51.5908
54.9503
59.673
64.6207
68.5445
70.599
70.6554
69.347
67.8708
67.6211
69.7451
74.7186
82.0561
90.2701
97.1553
100.385
98.2807
90.5109
78.4379
64.8993
53.3882
46.8332
46.4055
50.8698
56.8833
60.2845
57.9382
49.3059
36.8761
25.0233
17.6717
15.917
17.0421
15.8359
7.91687
-6.53265
-20.8512
-23.4537
-2.84197
45.9323
116.564
191.375
246.623
261.416
226.409
148.279
47.7606
-48.0052
-115.457
-142.592
-131.725
-96.3752
-54.309
-20.1972
-1.05066
4.17963
1.56758
-2.11255
-2.7278
0.141356
4.28971
7.00347
6.84925
4.29387
1.12487
-0.734369
-0.257814
2.29569
5.69213
8.43016
9.43654
8.44869
5.99557
3.07289
0.6994
-0.462757
-0.302241
0.773238
2.05716
2.85566
2.76512
1.80741
0.375624
-0.973729
-1.77833
-1.8567
-1.34543
-0.587648
0.0546095
0.363099
0.32721
0.0961921
-0.134397
-0.231359
-0.173819
-0.0326308
0.0929057
0.137032
0.095415
0.0124703
-0.0548586
-0.0714964
-0.0388259
0.0135381
0.0493861
0.0472753
0.0112136
-0.0329731
-0.0527956
-0.0285062
0.0326828
0.0961364
0.116507
0.0658397
-0.0421249
-0.149473
-0.182496
-0.100709
0.0624401
0.199881
0.18542
-0.0402972
-0.405543
-0.718715
-0.769892
-0.476643
0.0170819
0.372633
0.234607
-0.524832
-1.63865
-2.47986
-2.32027
-0.69902
2.29772
6.017
9.51427
11.989
13.1462
13.285
13.0726
13.1436
13.7625
14.738
15.613
15.9859
15.7465
15.0881
14.312
13.5838
12.8179
11.768
10.2489
8.32459
6.32817
4.70376
3.7862
3.6716
4.25412
5.37345
6.93395
8.8842
11.0666
13.0698
14.245
13.9478
11.9015
8.46387
4.59756
1.50895
0.118993
0.647608
2.54102
4.78031
6.39399
6.89016
6.3883
5.42167
4.57456
4.1938
4.33149
4.90045
5.88029
7.39636
9.61304
12.5442
15.9657
19.5471
23.1452
27.0442
31.9123
38.4106
46.6395
55.7765
64.2028
70.1521
72.5754
71.7314
69.1235
66.7616
66.1379
67.4923
69.7875
71.3825
70.9727
68.2171
63.7136
58.4447
53.1825
48.3354
44.3196
42.0404
42.8463
47.6356
55.5023
62.9369
64.6224
56.0832
37.1852
14.5096
0.670822
9.93776
51.5371
123.662
211.454
290.704
336.313
332.096
277.513
188.178
89.7802
8.15437
-40.0753
-52.2894
-38.4617
-14.8543
3.78373
9.86582
4.3283
-6.10825
-13.7028
-13.8327
-6.671
3.87141
12.8218
16.7662
15.1395
9.85848
3.86782
-0.428957
-2.06922
-1.51104
0.0362147
1.41528
2.0272
1.88754
1.35421
0.779039
0.296676
-0.172662
-0.766987
-1.49992
-2.16296
-2.35697
-1.62538
0.381081
3.78071
8.4238
13.9486
19.9043
25.8957
31.7029
37.3357
43.0001
48.9807
55.4698
62.4085
69.4181
75.881
81.176
84.9881
87.548
89.6541
92.4008
96.6859
102.699
109.65
115.917
119.599
119.263
114.524
106.197
95.9139
85.4062
75.8054
67.3085
59.3575
51.1992
42.4918
33.6073
25.4682
19.0291
14.7221
12.2031
10.5511
8.80505
6.51717
3.99003
2.05008
1.48432
2.47118
4.34975
5.88411
5.89741
3.93309
0.572389
-2.78501
-4.58259
-3.87703
-0.820435
3.39227
7.08085
8.85447
8.21515
5.70622
2.56951
0.129001
-0.760105
0.072095
2.28329
5.40799
9.17953
13.5728
18.5598
23.7764
28.3784
31.2555
31.5438
29.1606
25.0301
20.8104
18.2067
18.1988
20.578
24.0355
26.7584
27.2302
24.8462
20.079
14.1789
8.62489
4.61724
2.81627
3.35126
5.97699
10.2255
15.4801
21.0101
26.0537
29.9935
32.5653
33.9719
34.7908
35.6785
37.006
38.6238
39.9057
40.0752
38.6585
35.8304
32.4593
29.8037
28.9823
30.4601
33.7978
37.8085
41.0871
42.7017
42.7361
42.3915
43.519
47.7064
55.2885
64.7693
73.0421
76.4667
72.4317
60.704
43.8446
26.3394
12.7194
5.53011
4.2082
5.55266
5.65253
2.27081
-3.70909
-8.77388
-9.13643
-3.68367
4.36683
8.51861
2.72646
-13.9371
-34.3987
-44.7272
-29.652
19.6285
99.0855
190.52
266.707
301.366
279.758
205.116
97.8732
-12.0568
-96.4942
-138.777
-138.084
-107.037
-64.4257
-26.8869
-3.28495
6.29713
7.50333
6.94427
8.41505
11.7175
14.0439
12.5683
6.554
-2.09907
-9.88886
-13.5052
-11.3325
-3.97756
6.23349
16.3425
23.8439
27.3553
26.7682
23.0046
17.5761
12.1027
7.88949
5.6343
5.34173
6.48139
8.34133
10.42
12.6577
15.3801
18.9901
23.6039
28.8724
34.123
38.7534
42.6351
46.2558
50.4741
55.99
62.8238
70.1159
76.4024
80.2684
81.065
79.3279
76.6616
75.1123
76.2904
80.6358
87.1587
93.7858
98.1752
98.6551
94.8802
87.9171
79.7192
72.2222
66.4702
62.1737
57.9106
51.8824
42.8768
30.9801
17.6991
5.42011
-3.54971
-7.92135
-7.91161
-5.06268
-1.48887
1.08845
2.06416
2.09963
2.64754
5.10036
9.99122
16.6447
23.4465
28.5875
30.8946
30.3232
27.8661
24.95
22.6676
21.2713
20.1997
18.5912
15.9569
12.5945
9.4879
7.75323
7.97281
9.82783
12.2584
14.0552
14.5223
13.8119
12.7391
12.208
12.6162
13.6071
14.3075
13.8844
12.0568
9.24777
6.30066
3.96774
2.51235
1.67643
1.01075
0.320409
-0.0981394
0.388231
2.28425
5.48826
9.12827
11.8611
12.5084
10.6964
7.14827
3.45777
1.43854
2.35527
6.38692
12.5489
19.0852
24.1465
26.4794
25.8761
23.2439
20.2869
18.9137
20.5599
25.6538
33.421
42.1321
49.7374
54.6627
56.4347
55.8319
54.455
53.8851
54.8394
56.7758
58.1933
57.5038
54.0014
48.3502
42.248
37.4079
34.4541
32.4694
29.5966
24.4447
17.4374
11.1052
8.83691
12.5664
20.7407
28.0845
27.8957
16.1534
-4.62218
-24.1986
-27.5936
-1.56224
58.0817
141.955
228.166
289.278
302.602
259.455
169.19
56.0977
-49.5457
-122.381
-150.223
-136.489
-96.424
-49.4765
-11.524
9.82873
15.5569
11.9946
6.33874
3.19798
3.4588
5.3182
6.32543
5.09406
1.89416
-1.85251
-4.5709
-5.32959
-4.0624
-1.28428
2.35478
6.34982
10.3499
14.0261
17.013
19.0386
20.1693
20.968
22.3856
25.3689
30.3642
36.9914
44.1018
50.2304
54.2352
55.8025
55.5607
54.7497
54.6254
55.9167
58.6091
62.1379
65.8489
69.4406
73.1316
77.4713
82.9227
89.4768
96.5306
103.097
108.216
111.331
112.416
111.8
109.831
106.587
101.841
95.2871
86.8809
77.0791
66.7836
56.9971
48.3666
40.8792
33.9075
26.6159
18.5269
9.94369
1.97801
-3.86383
-6.3536
-5.14581
-1.01664
4.37957
9.11759
11.6894
11.4766
8.83861
4.83914
0.779893
-2.24629
-3.63068
-3.30538
-1.62397
0.850326
3.56494
6.13989
8.42532
10.4397
12.2222
13.6848
14.5716
14.5859
13.6386
12.0663
10.6365
10.2602
11.5186
14.269
17.6069
20.2783
21.3543
20.7755
19.3982
18.4485
18.669
19.683
20.0257
17.9204
12.407
4.15924
-4.55289
-10.8359
-12.61
-9.7306
-4.15049
1.00943
3.008
0.833525
-4.34931
-9.86075
-12.8855
-11.8256
-6.94969
-0.0893456
6.35415
10.5115
11.7126
10.4944
8.10379
5.86602
4.74833
5.23284
7.39298
10.9936
15.5227
20.2115
24.1713
26.6993
27.6404
27.5667
27.5772
28.7276
31.3576
34.7211
37.2165
37.198
33.9861
28.5058
23.1063
20.5253
22.4564
28.4833
36.0509
41.6563
42.7595
39.4138
34.5998
32.8257
37.5046
48.4539
61.0791
68.1454
63.7091
47.4137
26.7328
15.3759
27.8274
72.0903
144.036
226.482
294.169
323.017
299.805
227.94
126.605
23.5373
-55.3531
-95.027
-95.2782
-68.4284
-32.4483
-3.04828
11.7322
12.5648
5.92707
-0.59478
-2.24313
1.39044
7.3948
11.9849
12.7933
9.87872
5.22842
1.34494
-0.160942
0.753112
2.82472
4.39502
4.40086
2.93617
1.14122
0.523974
2.08247
5.67982
9.99793
13.1165
13.4514
10.5902
5.59011
0.55987
-2.28453
-1.61922
2.44323
8.53308
14.804
19.8723
23.4049
26.0743
28.97
32.8629
37.7675
43.0285
47.8215
51.7093
54.8942
58.0314
61.7618
66.2981
71.3349
76.3165
80.8406
84.8862
88.6837
92.3082
95.3004
96.6307
95.121
90.1258
82.0699
72.4703
63.3457
56.2769
51.6109
48.2626
44.2635
37.8071
28.2698
16.6865
5.43632
-2.71213
-5.74435
-3.21245
3.61663
12.2902
20.1015
25.0226
26.2946
24.5172
21.2782
18.506
17.7763
19.7866
24.1447
29.5277
34.1646
36.4804
35.6724
31.9895
26.5921
21.0465
16.6808
14.0978
13.0692
12.8406
12.6629
12.2468
11.8904
12.2143
13.6748
16.1554
18.903
20.8751
21.3157
20.2261
18.4304
17.1553
17.3285
18.9921
21.1912
22.4551
21.6396
18.6661
14.7089
11.6733
11.2107
13.8085
18.4808
23.2598
26.2292
26.5134
24.6535
22.1642
20.554
20.4175
21.1558
21.483
20.3806
17.8766
15.1397
13.8181
15.0352
18.6727
23.3949
27.399
29.4302
29.4466
28.5526
28.2756
29.6512
32.6697
36.3797
39.5314
41.3267
41.8149
41.7193
41.8345
42.3834
42.7323
41.6478
37.9801
31.42
22.9191
14.5005
8.45963
6.26775
7.70093
10.7131
12.2881
10.0124
3.61897
-4.43424
-9.95152
-9.34277
-2.19287
7.53639
12.8464
7.48087
-9.50849
-30.9825
-42.8744
-29.6508
17.9262
96.3991
188.138
266.297
304.642
288.095
219.235
117.699
12.679
-68.1025
-108.087
-106.278
-75.0598
-33.188
2.37525
22.189
25.716
18.7614
9.04001
2.30205
0.575498
2.68003
6.04849
8.54727
9.39114
8.99383
8.2036
7.56493
7.03974
6.23825
4.89956
3.26892
2.13196
2.48485
5.01684
9.67715
15.5607
21.2019
25.1704
26.7052
26.075
24.4642
23.4082
24.0436
26.5596
30.1581
33.5684
35.8551
37.0747
38.3885
41.5239
47.8361
57.4637
69.0535
80.2455
88.7093
93.2214
94.2284
93.5956
93.654
96.022
100.799
106.54
111.01
112.337
109.933
104.731
98.596
93.2481
89.2771
85.7919
80.906
72.8102
60.8598
46.0881
30.8647
17.8712
8.93289
4.31234
2.8076
2.55942
2.09489
1.03304
0.0948251
0.463652
2.90038
7.13097
11.8454
15.2901
16.1101
13.9838
9.73127
4.87814
0.937458
-1.21312
-1.57524
-0.837392
0.0887966
0.533994
0.317126
-0.30011
-0.865958
-1.03082
-0.726649
-0.166477
0.303802
0.405949
0.0787442
-0.48894
-0.947796
-0.954271
-0.337991
0.803247
2.12464
3.16728
3.54945
3.13363
2.09201
0.835833
-0.163791
-0.582346
-0.377951
0.208684
0.789632
1.03177
0.823049
0.319653
-0.147063
-0.252164
0.148895
0.943301
1.81692
2.40925
2.48427
2.03112
1.25042
0.443485
-0.131099
-0.360338
-0.295421
-0.091106
0.0900484
0.154436
0.101127
-0.00688943
-0.0957651
-0.12352
-0.0922043
-0.0321056
0.0235752
0.0549042
0.0559617
0.0277899
-0.0243427
-0.0851167
-0.12342
-0.100897
0.000430132
0.146731
0.247166
0.197649
-0.0366677
-0.35114
-0.510737
-0.272016
0.425764
1.32028
1.86905
1.52117
0.105924
-1.90638
-3.51188
-3.70245
-2.17696
0.220554
1.74321
0.708708
-3.27399
-8.61869
-12.2785
-11.4732
-5.77763
1.80336
5.87768
1.83748
-10.2462
-23.3017
-24.4764
-0.245594
56.4362
140.362
233.021
307.675
339.023
313.416
234.978
124.663
12.5174
-73.4479
-116.889
-117.299
-87.5032
-46.3804
-10.6233
10.7843
17.5611
15.2138
10.5348
8.04507
8.80919
11.4552
14.1135
15.8491
16.8804
17.8331
18.8603
19.3689
18.5162
16.0389
12.7432
10.249
10.1047
12.8238
17.4511
21.9459
24.1819
23.0123
18.8362
13.3983
8.97351
7.37997
9.30005
14.1689
20.5852
26.9691
32.1461
35.6512
37.7206
39.0714
40.5996
43.0908
46.9922
52.2803
58.4664
64.7748
70.4669
75.1914
79.1804
83.1444
87.865
93.6657
100.053
105.766
109.263
109.436
106.155
100.35
93.5439
87.0721
81.4121
75.9861
69.5469
60.9365
49.7994
36.8719
23.7111
12.0383
3.07024
-2.81316
-5.93939
-6.90259
-6.13287
-3.75833
0.17221
5.2916
10.6618
14.9125
16.7733
15.7338
12.438
8.52297
5.90536
5.83941
8.23831
11.6496
13.9484
13.4261
9.71951
4.08531
-1.14938
-3.6981
-2.42943
2.07904
7.81964
12.3099
13.7323
11.6997
7.30857
2.52035
-0.769499
-1.50998
0.202713
3.34499
6.50862
8.47362
8.5905
6.90349
4.06863
1.15141
-0.647523
-0.323619
2.58219
7.72247
13.9196
19.4762
22.7646
22.869
19.9737
15.2837
10.4873
7.01766
5.48033
5.52957
6.22743
6.66178
6.47118
5.9983
6.01556
7.20456
9.69097
12.8857
15.7053
17.0479
16.2856
13.5487
9.68502
5.92824
3.41913
2.773
3.85712
5.86168
7.63795
8.17645
7.03827
4.56501
1.77743
0.00124651
0.37209
3.41717
8.8671
15.7456
22.6755
28.2755
31.5263
32.0172
30.0296
26.4329
22.3968
18.9759
16.7024
15.3759
14.2039
12.2912
9.25527
5.60598
2.58569
1.45771
2.60801
5.04745
6.76667
5.90542
2.10702
-2.8713
-5.94502
-4.72903
0.274301
4.83953
2.58375
-11.3012
-35.8556
-62.1757
-75.1799
-59.4203
-6.78534
77.5291
174.139
254.944
293.198
274.021
200.663
93.5999
-17.2299
-103.614
-148.803
-151.811
-125.011
-86.8708
-53.6324
-33.6819
-26.5617
-26.0904
-25.2369
-20.0347
-10.8616
-1.08833
5.56624
7.27109
4.80924
0.74587
-2.16641
-2.32665
0.269752
4.48146
8.88585
12.4841
14.9273
16.3141
16.8531
16.679
15.9251
14.9323
14.3684
15.0923
17.7734
22.4566
28.3336
33.9119
37.576
38.3226
36.3245
33.0155
30.5889
31.0902
35.5055
43.2894
52.591
61.097
67.095
70.2316
71.5835
73.0126
76.1456
81.5131
88.2886
94.7385
99.1193
100.532
99.2977
96.6908
94.2186
92.8486
92.5755
92.5016
91.3232
87.9295
81.814
73.153
62.6072
51.0303
39.2623
28.0699
18.1647
10.1715
4.47063
0.96231
-1.08749
-2.95205
-6.03833
-11.2899
-18.6651
-26.9774
-34.2485
-38.4775
-38.5047
-34.5612
-28.2188
-21.7312
-17.0669
-15.0986
-15.3476
-16.401
-16.7677
-15.7118
-13.6165
-11.6969
-11.2419
-12.8232
-15.9256
-19.1981
-21.1743
-21.0418
-19.0256
-16.184
-13.759
-12.4744
-12.185
-12.0613
-11.1721
-9.10318
-6.24494
-3.58662
-2.14613
-2.36681
-3.82264
-5.39503
-5.82646
-4.36073
-1.14123
2.8327
6.17055
7.75146
7.26236
5.35022
3.30507
2.4162
3.31299
5.62927
8.18688
9.63283
9.20977
7.23328
4.97379
3.95714
5.0451
7.83144
10.7614
11.991
10.5553
7.17527
4.17656
4.46011
10.0162
20.7738
34.441
47.4725
56.6825
60.6678
60.3102
58.1392
56.9451
58.4053
62.4113
67.3563
71.1137
72.1296
70.0881
65.9244
61.3119
57.9482
56.9354
58.4115
61.4705
64.3884
65.18
62.4339
56.1617
48.1969
41.6864
39.6026
42.8376
48.9658
52.7427
48.6501
34.5834
14.7629
-0.144774
3.39789
35.5313
96.7772
175.125
248.503
292.261
288.726
234.656
143.105
38.7591
-51.2726
-107.141
-122.344
-103.997
-67.8246
-30.7064
-4.26998
7.95416
9.35121
6.44712
4.85998
6.9048
11.5421
16.0609
18.1805
17.3732
14.8947
12.8006
12.6827
14.8486
18.2964
21.3755
22.716
21.9439
19.8623
18.0455
18.0529
20.6271
25.2515
30.2947
33.7142
34.0271
31.0939
26.3133
22.0842
20.7487
23.5174
29.9141
38.0415
45.5454
50.7893
53.6289
55.3828
58.0306
63.0828
70.7431
79.8127
88.3694
94.8232
98.7507
101.046
103.321
106.899
111.99
117.478
121.447
122.136
118.793
111.979
103.201
94.0788
85.535
77.4237
68.7717
58.476
46.0713
32.164
18.3206
6.48114
-1.8072
-5.96857
-6.53872
-4.8378
-2.3667
-0.228141
1.16833
2.02175
2.77614
3.7097
4.71032
5.35028
5.19661
4.15831
2.65163
1.46815
1.40108
2.82592
5.46351
8.45965
10.7478
11.5148
10.5421
8.26976
5.57607
3.40205
2.40352
2.76721
4.22409
6.19993
8.00954
9.03027
8.84203
7.34544
4.84925
2.07539
0.0162764
-0.372211
1.43985
5.2546
10.1106
14.5894
17.3699
17.7844
16.1018
13.3779
10.9326
9.70716
9.82394
10.5675
10.7861
9.49986
6.40658
2.0437
-2.4523
-5.84924
-7.33644
-6.82453
-4.91782
-2.60166
-0.801993
-0.010997
-0.130543
-0.587415
-0.658197
0.152444
1.86889
4.07124
6.19219
7.92832
9.51623
11.6674
15.1377
20.1422
25.9673
31.0731
33.7158
32.803
28.5085
22.271
16.1374
11.798
9.85166
9.69642
10.0514
9.72781
8.14655
5.32843
1.50086
-3.24044
-8.84172
-14.8052
-19.7868
-21.8703
-19.708
-13.9958
-8.19626
-7.53995
-16.2151
-33.9129
-53.7381
-63.2732
-49.1799
-3.75615
69.5854
154.965
228.207
265.334
251.923
189.194
93.9951
-7.38873
-88.9205
-133.794
-139.062
-114.433
-76.4348
-41.0149
-17.9086
-8.7749
-9.09602
-12.1506
-12.7898
-9.35043
-3.31174
2.5177
5.96971
6.58788
5.47812
4.33753
4.39576
5.86379
8.06028
9.9749
10.8551
10.5045
9.22907
7.58198
6.1192
5.28956
5.44272
6.85208
9.66742
13.803
18.8505
24.1193
28.8391
32.4567
34.8889
36.6026
38.4645
41.413
46.0814
52.5222
60.1486
67.9206
74.7204
79.7802
82.9934
84.9703
86.7865
89.5084
93.6951
99.1158
104.841
109.686
112.791
114.033
114.023
113.669
113.537
113.364
112.054
108.184
100.792
90.0039
77.1573
64.2932
53.2786
45.0025
39.0681
34.1378
28.736
22.0756
14.469
7.12519
1.46531
-1.6494
-2.35536
-1.66273
-0.859068
-0.787436
-1.40799
-1.88775
-1.16637
1.32174
5.1805
9.11905
11.5436
11.3773
8.67533
4.69981
1.38747
0.461538
2.62089
7.20478
12.4911
16.4721
17.7245
15.9675
12.0788
7.618
4.13408
2.5957
3.17312
5.38787
8.46631
11.6719
14.466
16.4886
17.4664
17.1755
15.515
12.6438
9.06727
5.57828
3.03908
2.08376
2.87129
4.99887
7.61485
9.6897
10.3483
9.15278
6.24642
2.30933
-1.6669
-4.72001
-6.25579
-6.24919
-5.2124
-3.93298
-3.10292
-3.03109
-3.59915
-4.48552
-5.50994
-6.8532
-8.96081
-12.1361
-16.0576
-19.5649
-20.9494
-18.701
-12.3508
-2.92387
7.32432
15.8319
20.8687
22.286
21.4659
20.5036
21.0879
23.7051
27.577
31.2844
33.6217
34.1306
33.0282
30.6913
27.1679
22.1396
15.3845
7.3589
-0.644042
-7.03116
-10.8778
-12.6423
-13.9842
-16.61
-20.8208
-24.8429
-25.6964
-21.3834
-13.1134
-5.87314
-6.33473
-18.6528
-40.279
-60.4977
-63.3873
-34.6612
30.5075
122.665
219.265
292.128
318.27
289.282
214.891
118.981
29.9227
-30.3257
-53.4938
-45.8026
-22.6715
-0.496691
10.3686
8.45266
-0.694677
-9.22519
-11.6786
-7.30907
0.60761
7.45361
10.0745
8.177
3.86853
-0.00438597
-1.5462
-0.598756
1.60013
3.43304
3.87142
2.87547
1.15422
-0.406289
-1.23672
-1.25547
-0.735282
-0.0550136
0.478687
0.681114
0.474037
-0.108207
-0.87771
-1.49044
-1.56502
-0.915143
0.236114
1.24361
1.32608
0.057448
-2.2049
-4.2519
-4.44644
-1.48724
4.87148
13.5582
22.5768
29.8965
34.3951
36.3637
37.3095
39.1724
43.3799
50.2265
58.8541
67.7608
75.4932
81.1339
84.3837
85.3211
84.1037
80.8579
75.8101
69.5005
62.8392
56.8736
52.355
49.3634
47.252
44.9939
41.7699
37.4775
32.875
29.2717
27.9188
29.4029
33.3258
38.3946
42.851
45.0424
43.9232
39.3434
32.0805
23.6349
15.8458
10.4046
8.37207
9.8324
13.8172
18.5668
22.0829
22.7994
20.1299
14.6771
8.01322
2.10785
-1.38113
-1.68388
0.853259
4.96546
9.00344
11.584
12.094
10.8494
8.86066
7.32702
7.10161
8.37105
10.6798
13.2501
15.4016
16.8389
17.6725
18.2032
18.6387
18.9339
18.8469
18.1489
16.8276
15.133
13.4418
12.0454
11.0221
10.2878
9.77512
9.58486
9.96158
11.0739
12.7436
14.3437
15.0092
14.1043
11.6963
8.72687
6.70765
7.02911
10.213
15.5097
21.0891
24.7773
25.0052
21.5215
15.5343
9.22264
4.85113
3.88784
6.4945
11.5688
17.2739
21.8056
24.0861
24.1371
23.0261
22.4352
24.0277
28.8484
36.9735
47.5265
59.0272
69.8964
78.8782
85.2076
88.5128
88.6131
85.4306
79.1246
70.3545
60.4145
51.0186
43.742
39.4065
37.8114
38.0354
39.1453
40.8248
43.4315
47.3769
52.2565
56.4465
57.6659
54.3453
46.9773
38.4441
32.8356
33.2284
39.672
48.6811
54.728
53.0422
42.1817
24.906
6.83721
-6.33049
-11.5103
-9.36537
-3.44314
2.01449
4.24614
2.97636
-0.0823758
-2.67141
-3.38324
-2.24371
-0.335059
1.09689
1.40538
0.757252
-0.188589
-0.804224
-0.84495
-0.463642
0.0196603
0.367548
0.522198
0.535901
0.450171
0.249542
-0.0771789
-0.444827
-0.660848
-0.541579
-0.0874411
0.424908
0.54397
-0.0786634
-1.39417
-2.86264
-3.68735
-3.30412
-1.85522
-0.316591
-0.0924315
-2.18921
-6.37094
-10.7974
-12.4635
-8.35762
3.15335
21.3888
43.3784
64.9001
82.0761
92.7898
97.2733
97.6456
96.7014
96.5977
98.0746
100.51
102.65
103.519
102.995
101.759
100.727
100.336
100.113
98.7713
94.7885
87.1551
75.932
62.3454
48.3813
36.0675
26.7539
20.6909
17.0699
14.4995
11.7132
8.20981
4.54325
2.11386
2.51522
6.69363
14.2899
23.4935
31.5436
35.728
34.4829
28.11
18.7585
9.63758
3.77394
2.85682
6.6826
13.434
20.6319
26.2774
29.6288
31.2634
32.459
34.2807
36.8966
39.4917
40.8025
39.9408
37.0192
33.2113
30.2027
29.3341
30.9068
34.0222
37.0356
38.3672
37.2421
33.9875
29.7756
25.9939
23.5985
22.7744
23.0211
23.5459
23.6977
23.2048
22.1326
20.6635
18.8922
16.7892
14.3439
11.758
9.51643
8.23639
8.35023
9.80469
11.9771
13.8991
14.6998
14.0398
12.2936
10.363
9.21198
9.37038
10.6816
12.4371
13.8211
14.4097
14.43
14.6203
15.7595
18.1329
21.2532
24.024
25.2913
24.5057
22.1408
19.6209
18.7574
20.9433
26.4865
34.4039
42.7852
49.5627
53.3349
53.8616
52.0061
49.1665
46.4938
44.3055
42.0184
38.6436
33.5723
27.1723
20.7809
16.0053
13.6839
13.1591
12.4368
9.32835
3.02078
-4.91619
-10.9408
-11.4772
-5.47805
3.95489
10.264
6.67848
-9.31491
-32.6938
-51.0988
-49.2733
-16.2602
47.9286
129.703
205.266
249.067
243.873
187.951
96.0943
-6.01289
-91.5039
-141.823
-152.056
-130.348
-92.4546
-54.4525
-26.9895
-13.1269
-9.81989
-11.4235
-13.0835
-12.5072
-9.83035
-6.33702
-3.14678
-0.626578
1.3954
3.06858
4.16394
4.18573
2.80825
0.265605
-2.61157
-4.74825
-5.33779
-4.20109
-1.80169
1.04916
3.59225
5.39998
6.42696
6.87806
7.03041
7.1289
7.38582
8.03042
9.33073
11.5498
14.86
19.2718
24.6183
30.5974
36.8435
43.0007
48.793
54.0942
58.9848
63.7528
68.7933
74.4021
80.5441
86.7308
92.1241
95.871
97.5253
97.3218
96.1155
94.9664
94.5681
94.833
94.8853
93.4968
89.7384
83.4879
75.504
67.0224
59.1103
52.1539
45.7772
39.2298
32.0021
24.2916
17.0309
11.4484
8.40912
7.91178
9.03158
10.3462
10.6161
9.35806
7.02137
4.69837
3.54436
4.21512
6.59054
9.88202
13.0236
15.1291
15.8063
15.2262
13.9707
12.7671
12.2193
12.6126
13.8221
15.3386
16.4215
16.3676
14.8343
12.0928
9.06318
7.04408
7.18964
9.94301
14.7125
20.0045
24.0171
25.451
24.1456
21.196
18.4516
17.6126
19.3682
23.0174
26.7831
28.6739
27.464
23.2977
17.6152
12.4505
9.46925
9.23723
11.0779
13.5551
15.2931
15.6835
15.1115
14.6104
15.17
17.1045
19.8386
22.228
23.226
22.5139
20.7376
19.2072
19.2165
21.3429
25.0994
29.126
31.8237
32.1171
29.9782
26.4742
23.3401
22.2886
24.368
29.6167
37.1112
45.3267
52.6271
57.6932
59.7737
58.7443
55.0371
49.5087
43.2764
37.4998
33.077
30.2902
28.5467
26.4292
22.2075
14.7344
4.3475
-6.79452
-15.3841
-18.6024
-16.0211
-10.6228
-7.9527
-13.2679
-27.7723
-45.9439
-55.9093
-43.5829
0.674084
75.8046
167.535
251.537
301.641
299.857
243.824
148.213
39.3322
-54.6855
-113.793
-131.858
-116.373
-82.9688
-47.8309
-21.643
-7.34267
-1.79419
0.379666
3.19544
7.63666
12.2074
14.7709
14.2813
11.4221
8.01759
5.81276
5.45783
6.25656
6.71617
5.49957
2.23572
-2.20489
-6.05511
-7.41123
-5.04448
1.09031
9.85503
19.4211
28.0263
34.6491
39.2952
42.7816
46.158
50.0982
54.5942
59.1009
63.0008
66.0633
68.5898
71.1545
74.1333
77.3736
80.2719
82.2515
83.3359
84.4049
86.8832
91.961
99.7695
109.018
117.377
122.478
123.043
119.538
114.003
109.106
106.891
107.84
110.671
112.95
112.177
106.832
96.9435
83.9925
70.2898
58.1367
49.101
43.6234
41.0111
39.7553
38.059
34.435
28.2261
19.8835
10.8768
3.20607
-1.34345
-1.9203
1.02793
5.94152
10.8342
14.1677
15.4933
15.5474
15.7674
17.4961
21.2963
26.7132
32.5597
37.5098
40.6459
41.6802
40.804
38.3566
34.5886
29.6916
24.0404
18.4175
13.9693
11.817
12.4843
15.4757
19.3004
22.0174
22.0798
19.0631
13.8898
8.40909
4.52657
3.32022
4.59579
7.10202
9.2748
10.0947
9.58376
8.67232
8.52052
9.69328
11.6744
13.0188
12.0806
7.91991
0.883456
-7.47006
-15.0657
-20.2518
-22.4835
-22.4142
-21.3997
-20.7402
-21.092
-22.3285
-23.835
-24.9653
-25.3427
-24.8486
-23.3966
-20.7471
-16.5741
-10.7834
-3.85217
3.11596
8.77571
12.2279
13.6231
14.2638
16.031
20.3536
27.2662
35.1373
41.3438
43.6374
41.4965
36.6432
32.2797
31.3005
34.4171
39.3539
41.8282
38.0344
27.3383
13.484
3.20234
2.54419
12.7869
28.4494
39.1644
35.1045
13.3761
-18.3331
-43.623
-44.7385
-12.1257
48.9249
118.749
171.619
188.294
166.461
123.251
87.8115
87.1175
131.968
210.329
291.64
340.181
331.055
261.142
150.073
31.2697
-62.1639
-109.969
-110.366
-77.3478
-32.1538
6.30205
27.7614
31.7678
24.5012
13.9095
5.80222
2.32374
2.63978
4.66206
6.55746
7.39668
7.03129
5.6862
3.69378
1.47733
-0.382495
-1.21002
-0.480079
1.89115
5.41874
9.20233
12.3038
14.1615
14.839
14.9985
15.6208
17.5953
21.3369
26.5754
32.4029
37.5879
41.0685
42.4443
42.2483
41.8338
42.8642
46.595
53.2727
61.9569
70.8899
78.2594
82.9889
85.1607
85.8647
86.5625
88.314
91.2737
94.7051
97.4727
98.721
98.3648
97.1424
96.227
96.6184
98.6286
101.694
104.565
105.755
104.021
98.705
89.8495
78.1082
64.5432
50.3954
36.8802
25.0272
15.5603
8.81932
4.73119
2.84364
2.42773
2.64113
2.72539
2.19291
0.948682
-0.702872
-2.18668
-2.89271
-2.43691
-0.838613
1.47196
3.83068
5.62454
6.54755
6.69825
6.47025
6.2989
6.40731
6.6952
6.82981
6.47968
5.54761
4.26179
3.07104
2.40882
2.46794
3.11714
4.00053
4.74969
5.17541
5.32934
5.41601
5.63121
6.04168
6.57993
7.13895
7.67829
8.24771
8.90141
9.56764
9.98837
9.80998
8.80509
7.10141
5.25857
4.10183
4.35904
6.27537
9.41782
12.7977
15.2752
16.0549
15.0249
12.7675
10.2397
8.29514
7.29774
7.02519
6.89698
6.38335
5.3514
4.14029
3.31273
3.22155
3.65255
3.78441
2.54395
-0.789878
-6.04556
-12.0029
-16.7711
-18.5771
-16.6071
-11.4766
-5.06002
0.282526
2.74003
1.86105
-1.24434
-4.40216
-5.3278
-2.58859
3.84218
12.63
21.6214
28.5849
31.8415
30.612
25.0883
16.3283
6.04911
-3.69539
-10.9939
-14.6691
-14.7678
-12.64
-10.4026
-9.90598
-11.7019
-14.673
-16.7371
-16.4198
-14.4159
-13.9938
-19.5216
-33.445
-53.1807
-69.9131
-70.7088
-43.7844
15.087
98.1425
185.862
252.62
275.902
245.263
167.005
62.2998
-40.5723
-116.516
-152.022
-148.301
-118.335
-79.817
-47.5539
-28.6716
-22.1638
-22.0756
-22.034
-18.6531
-12.4077
-6.14485
-2.59029
-2.45854
-4.12688
-4.796
-2.25266
3.83781
11.7634
18.6847
22.0493
20.7516
15.5246
8.492
2.19391
-1.42915
-1.6796
0.816948
4.53678
7.75451
9.21598
8.54095
6.23551
3.35154
0.968319
-0.262359
-0.303681
0.418061
1.40502
2.49321
4.03553
6.74506
11.2715
17.7416
25.5297
33.4108
40.0459
44.5654
46.9582
48.0648
49.1714
51.397
55.1587
59.9558
64.5556
67.4894
67.6407
64.6945
59.2873
52.821
47.0172
43.3646
42.6317
44.5933
48.0593
51.2146
52.1838
49.6602
43.3914
34.3407
24.4336
15.9461
10.7384
9.61946
12.1014
16.6524
21.3481
24.6341
25.856
25.3198
23.8834
22.3228
20.8416
19.0089
16.1635
12.0388
7.21137
3.06007
1.19942
2.66974
7.33275
13.8286
20.1431
24.4912
26.0486
25.1608
22.9662
20.7019
19.1099
18.257
17.7932
17.4014
17.0982
17.1877
17.9325
19.2085
20.4208
20.7723
19.7258
17.3598
14.3777
11.7478
10.19
9.81746
10.1442
10.4389
10.1969
9.44152
8.68329
8.58015
9.51734
11.3609
13.5213
15.2743
16.1434
16.1233
15.634
15.2501
15.3734
16.036
16.9277
17.6118
17.7829
17.4097
16.6844
15.8283
14.8964
13.7282
12.0956
9.96217
7.66961
5.88943
5.31076
6.21464
8.19426
10.2374
11.1969
10.4365
8.30052
6.11077
5.63448
8.26347
14.3217
22.866
32.0813
40.0478
45.4621
47.9487
47.8635
45.809
42.2375
37.4238
31.7822
26.2093
22.0547
20.5486
21.9401
24.9276
26.9423
25.3969
19.3495
10.571
3.11567
1.25199
6.67046
16.6135
24.4202
22.8258
8.70667
-13.2608
-30.5229
-27.1163
8.74759
77.4186
164.728
245.341
291.787
285.475
224.75
126.173
18.3024
-69.2944
-116.875
-120.586
-91.5648
-49.1903
-12.1528
8.51334
11.7506
4.04516
-5.65757
-10.758
-9.35164
-3.62704
2.60053
6.44522
7.21777
6.06887
4.66569
3.95689
3.77903
3.36691
2.23263
0.719774
-0.150824
0.596487
3.12481
6.51211
9.18008
9.77837
7.99005
4.76909
1.85879
0.860467
2.37619
5.69613
9.18468
11.1313
10.5934
7.79462
3.91206
0.421665
-1.61516
-1.95776
-1.12829
0.00273127
0.711988
0.731811
0.253261
-0.308216
-0.603986
-0.529356
-0.218019
0.096847
0.242266
0.189047
0.0300701
-0.107375
-0.146715
-0.094305
-0.0121108
0.038044
0.0367946
0.0110684
0.00345608
0.0332026
0.0779489
0.0896275
0.0339549
-0.0745633
-0.170082
-0.173894
-0.0538953
0.135078
0.265761
0.212145
-0.0559649
-0.421623
-0.662529
-0.581542
-0.156311
0.393613
0.691599
0.421588
-0.436029
-1.50278
-2.12999
-1.72051
-0.0784702
2.42146
4.96964
6.71277
7.19164
6.57268
5.53135
4.85076
4.97427
5.78229
6.72564
7.22365
7.06545
6.55055
6.27321
6.6897
7.75548
8.88275
9.2679
8.3991
6.43059
4.18012
2.72886
2.8394
4.5169
6.95803
8.91804
9.30571
7.70973
4.61109
1.1976
-1.126
-1.32654
0.795384
4.44148
8.02934
9.75254
8.33791
3.74309
-2.51041
-7.60593
-8.33412
-2.37331
10.5473
28.1453
46.0718
59.304
63.9344
58.6238
45.0986
27.4717
10.6837
-1.27168
-6.60944
-6.04088
-2.07457
2.26723
4.71752
4.50419
2.3406
-0.202976
-1.57134
-0.914108
1.68949
5.50254
9.69147
13.8456
18.1659
23.2193
29.3924
36.3631
42.9302
47.385
48.316
45.4669
40.155
34.9135
32.3995
34.048
39.1932
45.246
49
48.4761
44.2742
39.5078
38.1016
42.2232
50.344
57.3585
57.2182
47.0596
30.6296
18.7214
25.5763
62.3026
130.232
217.672
302.256
358.499
367.551
324.816
241.944
142.258
51.7104
-10.5271
-37.8325
-36.1802
-19.2043
-1.16509
8.7633
8.64889
2.22829
-4.77828
-8.19229
-7.07912
-3.27843
0.393818
1.95905
1.13456
-0.95888
-2.75767
-3.17347
-1.99116
0.296016
2.93019
5.27182
6.94937
7.81789
7.87302
7.22406
6.11524
4.91119
3.98702
3.55505
3.53589
3.57684
3.23481
2.23442
0.656612
-1.05416
-2.27884
-2.51916
-1.65628
-0.046782
1.59754
2.50953
2.23622
0.932354
-0.557552
-0.903042
1.2512
6.71607
15.3165
25.8096
36.2705
44.8393
50.5163
53.6113
55.5741
58.2256
62.7338
68.859
74.8969
78.4107
77.4203
71.4477
61.8605
51.3062
42.5072
37.0231
34.6111
33.4913
31.3562
26.5836
19.04
10.1017
1.93938
-3.5271
-5.47223
-4.42382
-1.87198
0.525941
1.73945
1.79537
1.67804
2.77598
6.13895
11.8773
18.9693
25.5738
29.733
30.1768
26.8781
21.0984
14.8831
10.2185
8.23409
8.81406
10.7895
12.5926
13.0342
11.8214
9.5882
7.47656
6.52292
7.17663
9.16629
11.7276
14.0259
15.5386
16.2222
16.4213
16.6028
17.0636
17.7518
18.2756
18.0924
16.7927
14.3479
11.1956
8.10047
5.83947
4.86248
5.11602
6.14424
7.4223
8.71974
10.2435
12.4255
15.4492
18.8189
21.3111
21.4631
18.4191
12.6833
6.28328
2.11243
2.65861
8.71279
18.7461
29.3698
36.7658
38.466
34.6299
28.1613
23.5341
24.816
33.7845
49.0208
66.4315
80.9804
88.8303
88.8836
82.9942
74.7831
67.7043
63.3956
61.1901
59.0035
55.0124
49.0599
42.8822
38.9908
38.9351
42.1415
46.2086
48.5812
48.5051
47.802
49.6549
55.9549
64.9824
71.3731
69.132
56.4428
39.4138
31.842
49.9226
103.732
189.658
288.194
369.289
403.635
375.02
287.88
166.271
44.5188
-46.1636
-88.9972
-86.0235
-54.2549
-16.2298
10.0786
17.4044
9.33036
-4.43347
-14.382
-15.7708
-9.60754
-0.484518
6.8205
9.86966
9.10384
6.65189
4.56995
3.69515
3.62319
3.49781
2.86015
1.94304
1.3108
1.2395
1.38187
1.00906
-0.323058
-2.1617
-3.07525
-1.25647
4.46961
13.796
24.7659
34.4684
40.3181
41.3104
38.6204
35.2125
34.6029
39.3285
49.8261
64.2381
79.2244
91.393
98.682
101.073
100.352
99.1049
99.4694
102.273
106.914
111.967
116.1
118.774
120.343
121.561
122.824
123.656
122.774
118.736
110.799
99.4987
86.561
74.1679
63.9545
56.2851
50.2164
44.1731
36.9593
28.5367
20.1225
13.544
10.1999
10.2082
12.2238
14.0486
13.728
10.5628
5.50461
0.719663
-1.4662
0.284672
5.65097
12.7877
19.1965
22.9007
23.3518
21.629
19.8419
20.0342
23.1276
28.4286
33.9395
37.323
37.0394
33.0881
26.9822
20.9741
16.9369
15.4838
15.7824
16.15
15.0942
12.2216
8.50452
5.75308
5.5752
8.40083
13.1182
17.5413
19.475
17.8195
13.135
7.37585
2.94865
1.58781
3.61728
7.93368
12.657
16.0631
17.3107
16.6383
15.0167
13.5262
12.8233
12.9551
13.5475
14.1856
14.7333
15.4238
16.7194
19.0765
22.7772
27.9064
34.4163
42.1466
50.6954
59.1729
66.0196
69.1344
66.4573
56.9056
41.2802
22.6113
5.53507
-5.29381
-7.20951
-1.02046
8.93438
16.5032
16.6512
8.23369
-4.9598
-15.7986
-17.607
-8.35086
7.19785
19.038
17.1313
-2.06138
-31.218
-52.9541
-46.4602
2.42227
92.3303
203.427
302.687
355.872
341.266
259.032
131.843
-3.62353
-110.573
-165.271
-164.006
-121.465
-62.1758
-9.53572
22.5454
32.317
27.1704
17.5395
11.227
10.6984
13.8557
16.9369
17.4145
15.2882
12.4432
10.9385
11.5415
13.4184
15.0036
15.302
14.6732
14.5623
16.3695
20.2255
24.5211
26.5875
24.2196
17.1826
7.77945
0.0285707
-2.23067
2.64989
13.0944
24.886
33.16
34.828
30.174
22.7613
17.667
18.9484
27.6623
41.4564
55.9015
66.7977
72.1945
73.0737
72.4334
73.4073
77.5503
84.2407
91.4268
97.1238
100.648
102.801
104.927
107.524
109.416
108.147
101.491
89.213
73.9399
60.4447
53.5245
55.514
64.7704
76.0325
82.5967
79.2981
64.8498
42.4153
18.1826
-1.31701
-11.8391
-12.8252
-7.07688
0.931132
7.15515
9.50469
8.21341
5.11634
2.38121
1.38265
2.20229
3.85244
4.97531
4.60974
2.66969
-0.0329835
-2.17255
-2.49682
-0.359984
4.01077
9.60826
15.0436
19.0724
21.0216
20.9435
19.455
17.3709
15.3322
13.6074
12.1298
10.6985
9.18912
7.64709
6.23474
5.10471
4.30457
3.7708
3.38889
3.05021
2.65996
2.11722
1.33324
0.327556
-0.641761
-1.02988
-0.140339
2.56852
7.16071
13.1005
19.4606
25.3881
30.5669
35.3747
40.596
46.8221
53.8804
60.645
65.3664
66.3639
62.7271
54.6953
43.5879
31.392
20.2231
11.8247
7.1545
6.06508
7.17702
8.14921
6.50338
0.857643
-7.99622
-16.9523
-21.8795
-20.0345
-12.3782
-4.18359
-2.90318
-13.7449
-35.0401
-56.2598
-60.7164
-32.7332
33.5801
128.326
226.311
294.925
306.66
250.852
139.178
2.07673
-122.568
-203.518
-226.918
-199.27
-142.023
-80.957
-35.5797
-13.1113
-8.9229
-12.0524
-12.2844
-5.15202
7.12705
18.4227
23.0458
19.1456
9.5377
-0.0820804
-4.25988
-0.488743
9.79403
22.2002
31.6757
34.8707
31.5088
24.247
17.2454
14.1972
16.7249
23.8099
32.421
38.9799
40.9589
37.8903
31.3704
24.1287
18.6667
16.1526
16.0955
16.9055
16.9884
15.761
14.0455
13.6508
16.3883
23.0572
32.9304
43.9875
53.7619
60.3746
63.2816
63.433
62.8326
63.731
67.7869
75.4879
85.9838
97.3393
107.1
112.994
113.56
108.519
98.7541
85.9343
71.9101
58.1497
45.4333
33.9089
23.4212
13.8969
5.56351
-1.10339
-5.6358
-7.85032
-7.96962
-6.52617
-4.12801
-1.24362
1.86773
5.06298
8.15336
10.8068
12.5974
13.1825
12.4991
10.8571
8.86219
7.19636
6.36005
6.49686
7.37438
8.5147
9.3984
9.64148
9.076
7.72941
5.75535
3.38344
0.918722
-1.24166
-2.64543
-2.92248
-1.98586
-0.173138
1.81058
3.19035
3.53399
3.02341
2.35141
2.21809
2.69154
2.88106
1.28219
-3.21825
-10.1553
-16.8612
-18.9882
-12.1971
5.66772
33.0097
64.4522
92.5743
110.724
115.614
108.454
94.0917
78.6146
66.64
59.6014
55.7797
51.8853
45.225
35.2559
23.752
13.6059
7.04193
4.3071
3.6136
2.37159
-1.01541
-5.90849
-9.62284
-9.1389
-3.46859
4.78135
9.92354
6.05406
-8.85596
-29.8099
-44.754
-38.5889
-0.096304
71.1883
161.697
246.457
297.341
293.837
231.743
125.778
4.70861
-99.0625
-161.017
-172.339
-141.068
-86.7442
-31.4979
8.24975
26.1775
25.485
14.682
2.442
-5.95801
-9.44556
-9.67817
-8.78156
-7.791
-6.4701
-4.17236
-0.829954
2.73491
5.36511
6.5211
6.8892
8.15389
12.0154
19.0427
28.081
36.6108
41.9001
42.334
38.212
31.6129
25.4325
22.1229
22.7636
26.8617
32.8641
39.0175
44.1049
47.7444
50.2266
52.1115
53.8752
55.7847
57.9884
60.6659
64.0757
68.4397
73.743
79.5969
85.2776
89.9406
92.9012
93.8361
92.815
90.1793
86.3621
81.7559
76.6689
71.3317
65.8814
60.2902
54.29
47.4044
39.1686
29.504
19.0654
9.31922
2.18629
-0.695357
1.20566
6.82521
13.6779
18.7279
19.6293
15.7733
8.61747
1.0877
-3.70875
-3.86554
0.502977
7.39348
13.913
17.6302
17.6023
14.5925
10.4378
6.97206
5.11824
4.62559
4.52677
3.97018
2.88226
2.04818
2.57726
5.10884
9.27689
13.7906
17.1048
18.2869
17.5596
16.191
15.792
17.427
21.0456
25.5398
29.3646
31.3471
31.2363
29.7294
28.0225
27.1795
27.664
29.232
31.1687
32.694
33.3436
33.2077
32.9952
33.9214
37.399
44.5267
55.4586
68.8918
82.0015
91.0656
92.7178
85.3831
70.1974
50.8289
32.0999
17.9696
9.88085
6.40352
4.45483
1.46084
-2.83444
-6.14374
-5.36241
0.639955
8.95307
12.9871
5.7448
-15.3073
-44.4404
-67.6093
-67.2071
-30.1477
44.3468
141.353
233.656
291.217
292.887
235.193
134.174
19.3782
-77.2853
-132.948
-140.691
-109.581
-58.6954
-8.47007
26.6668
41.6642
39.7853
28.6789
16.0031
6.55921
1.6479
0.139694
0.13925
0.246734
-0.012756
-0.442025
-0.67169
-0.524705
-0.0993701
0.356402
0.620773
0.605044
0.361833
0.0275326
-0.253121
-0.387539
-0.365043
-0.249076
-0.133831
-0.0832819
-0.087156
-0.0677332
0.0564732
0.28705
0.505985
0.527288
0.227289
-0.326776
-0.854221
-0.997776
-0.566115
0.268789
0.981353
0.964639
-0.0558761
-1.72484
-3.12183
-3.24486
-1.69099
0.882484
2.89243
2.63451
-0.586174
-5.63071
-9.58955
-8.89724
-1.07733
13.7306
32.3063
49.3174
59.3729
59.2366
49.1634
32.7346
15.3022
1.8052
-5.03564
-5.39761
-1.75806
2.54087
4.82132
4.03682
0.88773
-2.79094
-4.98193
-4.35259
-0.740843
4.84712
10.6725
14.9669
16.6631
15.8848
13.9649
12.9106
14.4729
19.2027
25.9673
32.2491
35.1947
32.9801
25.8357
16.1743
7.67581
3.70144
5.77546
12.8662
21.8246
28.7741
30.7876
27.0691
19.1276
9.94304
2.60073
-0.926949
-0.319827
3.36203
8.47882
13.6403
18.1387
21.8541
24.8251
26.8499
27.4129
25.9818
22.4542
17.4193
12.0085
7.3815
4.15395
2.14395
0.638154
-0.965473
-2.57074
-3.31517
-2.18548
0.997965
4.90159
6.93364
4.55187
-2.99206
-13.5822
-22.8027
-26.2369
-22.4376
-14.7413
-10.3541
-16.4868
-35.1542
-59.5286
-74.5301
-62.4625
-11.7788
75.0893
179.134
269.628
315.133
296.138
213.649
89.6405
-41.005
-143.55
-195.708
-194.067
-152.468
-93.9563
-40.5646
-5.58124
8.91361
9.30907
4.93316
2.89763
5.57315
11.1478
16.1167
17.905
16.2479
12.956
10.6202
11.1926
15.178
21.6565
28.8944
35.1144
39.0717
40.2905
38.992
35.8346
31.5964
26.9174
22.1907
17.64
13.5371
10.4213
9.15267
10.6988
15.709
24.0835
34.7949
46.1173
56.21
63.8023
68.6579
71.6002
74.1021
77.6513
83.1891
90.8465
100.025
109.706
118.8
126.391
131.848
134.845
135.366
133.712
130.458
126.32
121.903
117.418
112.514
106.329
97.8133
86.2259
71.5913
54.9188
38.0435
23.117
11.9234
5.2853
2.80412
3.0492
4.13344
4.44839
3.2609
0.925844
-1.36942
-2.21172
-0.647966
3.35519
8.87851
14.4467
18.6589
20.7565
20.8712
19.8629
18.8525
18.6921
19.6226
21.2496
22.8038
23.5188
22.9336
20.9992
17.994
14.3432
10.4609
6.68065
3.26268
0.423841
-1.66009
-2.88146
-3.21978
-2.71522
-1.39998
0.761514
3.86038
7.93813
12.8395
18.1267
23.1467
27.2622
30.1527
32.0256
33.5966
35.8024
39.3423
44.2395
49.6255
53.8707
55.0597
51.6787
43.2909
30.9418
17.0793
4.90353
-2.72293
-4.43061
-1.04005
4.65255
9.094
9.75114
6.55364
2.07811
0.0907823
3.0102
9.70072
15.1808
13.0241
-0.295107
-21.3225
-38.4789
-35.4562
1.50901
75.5197
174.209
271.385
335.44
341.433
281.63
169.596
35.7283
-83.9843
-161.067
-183.916
-159.724
-108.884
-55.1176
-16.0794
1.65545
1.93295
-5.82092
-12.5031
-13.3496
-8.68649
-1.95428
3.23114
5.18567
4.55308
3.27728
3.15658
4.95142
8.42018
12.975
18.3193
24.5875
31.9647
40.1712
48.2775
55.0568
59.6794
62.293
64.0858
66.7476
71.6203
79.0182
88.0951
97.3067
105.185
110.989
114.906
117.766
120.504
123.694
127.385
131.261
134.933
138.158
140.866
143.013
144.413
144.671
143.279
139.808
134.108
126.407
117.286
107.542
97.9768
89.1704
81.2971
74.0454
66.7053
58.4351
48.6397
37.3152
25.1912
13.5701
3.90174
-2.73233
-5.98781
-6.31155
-4.66827
-2.09698
0.667294
3.32637
5.88266
8.37426
10.6912
12.6152
14.0601
15.3334
17.1921
20.5729
26.0767
33.471
41.5138
48.2648
51.8005
51.0158
46.124
38.5935
30.5336
23.8113
19.305
16.6249
14.3923
10.9152
4.93931
-3.83574
-14.6398
-25.8977
-35.7245
-42.4614
-45.0983
-43.4934
-38.353
-30.9742
-22.7977
-14.8858
-7.50529
-0.00386615
8.90874
20.5351
35.4639
53.0829
71.6017
88.6228
102.019
110.695
114.857
115.677
114.57
112.535
109.933
106.79
103.315
100.171
98.2014
97.7408
98.0521
97.4819
94.4909
89.0302
83.256
80.7386
84.2012
92.9537
101.832
102.998
90.4264
65.0162
37.2601
25.0182
46.2841
109.716
207.566
315.191
398.52
426.927
385.95
283.969
149.51
20.227
-71.5086
-110.005
-99.9007
-61.1675
-18.5877
9.00538
14.9796
4.64366
-10.2197
-18.5286
-15.1274
-2.02753
14.0705
25.9849
29.599
25.1972
16.4477
8.0432
3.40765
3.50148
6.99726
11.4037
14.4038
14.7757
12.6143
8.94589
5.06022
1.91874
-0.120162
-1.21028
-1.6897
-1.73939
-1.23241
0.143337
2.57102
5.80603
9.11082
11.5241
12.3728
11.7717
10.8192
11.3226
15.1146
23.2463
35.4278
49.9984
64.4694
76.4185
84.3519
88.1699
89.0638
88.9292
89.5883
92.1636
96.8294
102.956
109.483
115.279
119.345
120.844
119.098
113.667
104.572
92.5149
78.9326
65.7233
54.6939
46.9422
42.4749
40.2682
38.7593
36.534
32.8787
27.9541
22.5566
17.6517
13.9469
11.7033
10.8063
10.9634
11.8526
13.1306
14.3478
14.906
14.1739
11.755
7.77394
2.99654
-1.33519
-3.92101
-3.89782
-1.18177
3.50727
8.95226
13.9329
17.6809
20.0976
21.6553
23.0544
24.8183
27.029
29.3266
31.1597
32.1463
32.3461
32.2939
32.7687
34.4185
37.4394
41.4825
45.8387
49.8018
53.0165
55.6327
58.1979
61.3535
65.4854
70.477
75.6428
79.8449
81.7569
80.2345
74.7341
65.668
54.5113
43.4813
34.7601
29.5089
27.1783
25.6323
22.2603
15.6483
6.8625
-0.636333
-2.79477
2.23899
11.9559
19.6601
17.6346
2.19529
-21.9982
-41.2756
-37.3925
4.09634
85.1821
190.984
292.603
356.947
359.682
295.562
181.298
49.4522
-63.9696
-132.715
-148.586
-121.742
-73.7407
-27.2477
2.69286
12.366
7.49968
-2.12597
-8.30043
-7.60046
-1.36107
6.6434
12.9701
16.1773
16.8615
16.5536
16.443
16.7054
16.6486
15.3738
12.4542
8.2619
3.85787
0.578745
-0.462506
1.22211
5.31199
10.774
16.2343
20.526
23.2024
24.768
26.4625
29.6476
35.0764
42.426
50.3678
57.1696
61.5321
63.2297
63.2289
63.2422
64.9619
69.3596
76.3624
84.9953
93.8544
101.658
107.644
111.706
114.269
116.006
117.49
118.914
119.98
120.008
118.265
114.357
108.493
101.431
94.0849
86.9647
79.8022
71.6267
61.3479
48.5773
34.2233
20.4581
9.96475
4.77864
5.29249
9.95271
15.8366
19.8552
20.0135
16.1477
9.8346
3.57882
-0.300953
-0.577729
2.53348
7.64099
12.8547
16.547
17.8951
17.0397
14.8593
12.4978
10.8528
10.2376
10.3528
10.5726
10.4021
9.86331
9.57866
10.4654
13.1678
17.5298
22.4325
26.1562
27.1435
24.797
19.8836
14.3
10.2812
9.44145
12.1325
17.4378
23.7715
29.7225
34.6633
38.7996
42.6823
46.5233
49.7703
51.2316
49.6981
44.7069
36.9943
28.3611
21.0014
16.6292
15.8209
17.8502
21.0336
23.3979
23.408
20.5436
15.5883
10.5181
7.89839
9.80148
16.5208
25.679
32.4627
31.4137
19.4429
-1.18772
-21.668
-28.5829
-8.99393
43.098
121.88
209.256
279.866
310.104
287.487
216.158
115.862
14.6231
-61.7111
-98.5157
-96.2489
-67.9202
-31.9294
-3.94796
8.50451
6.8898
-1.58784
-8.95985
-10.5079
-6.13654
0.911314
6.67796
8.76557
7.1686
3.61207
0.168684
-1.87487
-2.33443
-1.69542
-0.439838
1.33667
3.81275
7.0282
10.5623
13.5944
15.3393
15.5728
14.8874
14.4837
15.5858
18.8027
23.7939
29.431
34.3721
37.7472
39.5957
40.8337
42.7746
46.457
52.1261
59.1296
66.2738
72.4488
77.1926
80.9018
84.5747
89.2239
95.2662
102.215
108.846
113.749
115.985
115.503
113.092
109.9
106.788
103.855
100.401
95.3441
87.8635
77.9187
66.3744
54.6613
44.1615
35.6446
29.0458
23.6831
18.7704
13.9284
9.40908
5.91715
4.14272
4.28027
5.81187
7.68153
8.76698
8.39235
6.60867
4.10457
1.81558
0.456851
0.226021
0.805716
1.6175
2.14976
2.17257
1.75451
1.1313
0.551858
0.201875
0.211084
0.670785
1.58925
2.794
3.88093
4.32418
3.76269
2.32704
0.776446
0.274137
1.83428
5.70762
11.0767
16.3077
19.7022
20.3767
18.7784
16.5131
15.5345
17.1191
21.1852
26.3326
30.5705
32.3146
31.0967
27.6192
23.1904
18.9372
15.2945
12.0536
8.86461
5.77571
3.37296
2.37438
2.94936
4.29314
4.88303
3.39994
-0.219601
-4.37214
-6.51271
-4.81095
0.205511
5.23244
5.7134
-1.08716
-13.0034
-21.875
-15.7577
15.8787
76.0751
156.475
238.034
296.784
312.623
277.398
198.628
97.1059
-0.655184
-71.8192
-104.524
-100.296
-71.1944
-33.5801
-1.58065
17.121
22.043
17.7973
10.7581
6.18386
6.74435
12.4849
21.658
31.7597
40.365
45.6692
46.7942
43.8939
38.0295
30.7931
23.7746
18.0795
14.1094
11.6872
10.414
10.0231
10.523
12.0712
14.6944
18.0511
21.3924
23.7471
24.2429
22.4224
18.444
13.1123
7.73311
3.81027
2.62904
4.8179
10.0355
16.9452
23.5698
27.9615
28.9486
26.6313
22.366
18.1976
15.9662
16.4904
19.2116
22.47
24.2778
23.2202
19.0635
12.8066
6.1893
0.92347
-1.9834
-2.52448
-1.52819
-0.168485
0.588387
0.354548
-0.616376
-1.64715
-2.00172
-1.23309
0.612484
2.99386
5.06731
6.00953
5.36612
3.29507
0.58524
-1.60502
-2.22612
-0.843917
2.0749
5.28663
7.30673
7.13665
4.81884
1.5035
-1.05705
-1.36081
1.07991
5.47772
10.1677
13.4579
14.4727
13.5297
11.8557
10.8218
11.1449
12.5052
13.7766
13.7096
11.6571
7.93672
3.65047
0.103681
-1.83074
-2.05898
-1.17849
-0.0644037
0.600959
0.599346
0.146214
-0.358218
-0.608401
-0.538451
-0.283463
-0.0304233
0.115376
0.161733
0.163379
0.136958
0.0412383
-0.15681
-0.391828
-0.483156
-0.242442
0.346322
1.01269
1.28281
0.770417
-0.482669
-1.87109
-2.47575
-1.63929
0.461091
2.6735
3.40271
1.6268
-2.19622
-6.01682
-7.18306
-4.13815
2.16706
8.20185
9.53316
3.59012
-8.01844
-19.2248
-21.9058
-10.0902
16.1503
49.4012
77.3113
87.8802
75.1462
42.3904
1.11661
-33.803
-50.4773
-44.7809
-21.3981
9.08717
35.3217
49.8977
51.5378
44.1645
33.8845
25.7492
21.8911
21.5909
22.7085
23.3426
22.7609
21.3196
19.7582
18.5233
17.572
16.657
15.742
15.164
15.4059
16.6649
18.5641
20.2502
20.8474
19.9829
18.0413
15.9722
14.7545
14.8359
15.8796
16.9672
17.1383
15.9567
13.7893
11.6568
10.7559
11.9226
15.3089
20.4049
26.3379
32.2496
37.5516
41.9716
45.4412
47.9568
49.5178
50.1593
50.0036
49.2469
48.0482
46.3853
43.9864
40.4206
35.3328
28.7157
21.0697
13.347
6.68103
2.00436
-0.28516
-0.471007
0.590204
1.80215
2.2734
1.70796
0.57533
-0.0470185
1.05243
4.58744
10.2577
16.6304
21.5637
23.0676
20.2451
13.853
6.14635
-0.00083699
-2.33066
-0.207889
5.10766
11.0763
15.0854
15.6477
13.0029
8.84795
5.38001
4.16844
5.42889
8.02592
10.1417
10.228
7.76276
3.48091
-0.972649
-3.7581
-3.59407
-0.25292
5.35984
11.5376
16.3823
18.4817
17.4233
13.955
9.70874
6.5646
5.89317
7.99839
12.0222
16.3735
19.4876
20.5507
19.8265
18.4306
17.6841
18.4049
20.5166
23.1752
25.3223
26.3453
26.4795
26.7441
28.4599
32.609
39.3487
47.8822
56.6944
64.0095
68.2808
68.5852
64.8738
58.0637
49.9248
42.6864
38.3435
37.8193
40.343
43.4814
44.0623
39.7732
30.7112
19.9326
12.3689
12.2942
20.4942
32.8061
41.3265
38.3171
21.2228
-3.84037
-22.529
-17.3743
24.1416
102.128
201.32
294.733
353.035
355.864
300.113
201.41
88.1049
-9.56003
-70.2685
-87.9249
-71.2444
-37.6574
-4.94485
15.4701
21.0372
16.235
8.22942
2.6498
1.42234
3.12247
4.94181
4.78838
2.37143
-1.02935
-3.62528
-4.211
-2.68995
0.0953227
2.95248
4.93602
5.66353
5.29652
4.3089
3.2143
2.36927
1.88942
1.66511
1.45009
0.99424
0.181404
-0.880458
-1.86446
-2.33659
-1.93073
-0.503957
1.80844
4.67046
7.72081
10.7625
13.8756
17.3987
21.783
27.3754
34.2196
41.9596
49.8998
57.2184
63.2679
67.8437
71.2917
74.3734
77.9104
82.3426
87.4083
92.1246
95.1211
95.2052
91.8988
85.6782
77.7837
69.6806
62.4435
56.3792
51.0742
45.816
40.1277
34.0962
28.3099
23.4646
19.9058
17.4142
15.3816
13.2668
11.0276
9.22215
8.6781
9.90673
12.6253
15.7099
17.6568
17.3198
14.5139
10.1356
5.72302
2.69659
1.69795
2.37743
3.7136
4.64816
4.65926
3.96314
3.27193
3.29431
4.29272
5.9444
7.552
8.44399
8.31707
7.33804
5.9847
4.75499
3.92545
3.4794
3.20583
2.87433
2.37069
1.72951
1.07616
0.537924
0.181513
-0.00226453
-0.079711
-0.142254
-0.269358
-0.484523
-0.71332
-0.775448
-0.449391
0.385358
1.58819
2.69064
3.02104
2.02367
-0.35739
-3.44639
-5.93779
-6.35226
-3.65862
2.25517
10.5328
19.7783
28.7508
36.9476
44.7511
53.0518
62.5631
73.2124
83.9546
93.1086
99.0388
100.836
98.6845
93.7808
87.8933
82.7627
79.5655
78.5919
79.2253
80.2535
80.46
79.3088
77.385
76.2292
77.4251
81.2561
85.7084
86.7183
80.0938
64.5751
44.5181
30.3495
35.6672
71.4976
139.99
230.708
321.956
387.42
405.747
369
286.108
179.608
77.0854
1.09842
-38.0084
-43.6234
-28.7382
-8.76493
5.05147
8.82596
5.12631
-0.630879
-4.04508
-3.83163
-1.52191
0.423114
0.572844
-0.654049
-1.5866
-0.670595
2.39692
6.46486
9.67283
10.5755
8.92642
5.70042
2.44003
0.386303
-0.0901867
0.50603
1.2606
1.4445
0.885857
-0.0483974
-0.780909
-0.920788
-0.486805
0.150851
0.541355
0.450658
-0.000630264
-0.438319
-0.505524
-0.128227
0.402053
0.59944
0.11999
-0.945815
-2.03429
-2.39773
-1.58909
0.146105
1.85428
2.32814
0.839303
-2.25564
-5.43396
-6.59382
-4.07162
2.43583
11.5773
20.9062
28.0485
31.8727
33.0165
33.4591
35.3496
39.7273
45.8412
51.4537
53.9742
51.8146
45.2453
36.3085
27.8577
22.243
20.3156
21.2173
22.984
23.5824
21.826
17.7467
12.3363
6.90139
2.43743
-0.662486
-2.49254
-3.29341
-3.17284
-2.08853
-0.0834173
2.43389
4.62504
5.50995
4.50721
1.92653
-0.922562
-2.17133
-0.250035
5.23046
13.0422
20.6414
25.1495
24.6032
18.8944
9.93652
0.939791
-4.90141
-5.72509
-1.73301
4.98087
11.4049
14.9261
14.391
10.4612
5.15871
0.876561
-0.652516
1.04085
5.20504
10.4396
15.4356
19.4849
22.5354
24.8473
26.5307
27.2868
26.5254
23.7782
19.1354
13.4064
7.87425
3.75664
1.67635
1.44058
2.25165
3.21471
3.83409
4.20388
4.79273
5.97853
7.64899
9.14677
9.62514
8.61774
6.47711
4.39401
3.9453
6.39537
12.1294
20.5329
30.3814
40.5113
50.3743
60.1432
70.2978
80.9428
91.2981
99.742
104.485
104.561
100.571
94.661
89.5892
87.2709
87.5883
88.2395
85.9226
78.3833
66.2128
53.2043
44.7169
44.6297
52.4989
62.7824
67.1523
59.2484
39.5849
17.6982
9.59578
30.8541
88.2147
173.853
265.723
334.693
355.793
318.651
232.224
121.515
17.6916
-53.8714
-82.2951
-73.0909
-43.1104
-11.6313
7.90386
11.9005
5.33343
-3.15199
-6.63506
-3.0486
5.01031
12.9038
17.0351
16.6014
13.3582
9.99509
8.38159
8.74016
10.021
10.9704
11.0634
10.723
10.8149
11.8817
13.6814
15.3144
15.8005
14.6879
12.302
9.51843
7.26214
6.08513
6.0736
7.08101
9.05163
12.1514
16.5799
22.1883
28.1992
33.2949
36.1268
36.0197
33.4881
30.2373
28.5747
30.4686
36.6851
46.4086
57.5254
67.4354
74.0285
76.406
75.0726
71.5679
67.7383
64.9709
63.6904
63.2829
62.4389
59.749
54.3075
46.0886
35.9583
25.3344
15.6536
7.8858
2.30933
-1.37367
-3.67787
-4.95581
-5.22611
-4.30371
-2.13295
0.915161
4.01283
6.18385
6.80119
5.98017
4.60418
3.91829
4.88001
7.61375
11.2767
14.4272
15.7153
14.5414
11.3522
7.43734
4.34602
3.21824
4.34026
7.09859
10.309
12.7406
13.6005
12.7969
10.9102
8.91582
7.78367
8.109
9.90608
12.6339
15.4338
17.4729
18.2446
17.6947
16.134
14.0036
11.6406
9.18159
6.65407
4.18477
2.17037
1.26873
2.16841
5.22877
10.1732
16.012
21.2721
24.4675
24.6317
21.7001
16.5856
10.9052
6.44564
4.54846
5.63474
9.04995
13.3087
16.6723
17.8503
16.5384
13.5446
10.413
8.6891
9.15801
11.4351
14.138
15.582
14.656
11.4223
7.10601
3.46767
1.89121
2.68722
4.99595
7.3337
8.45711
8.03991
6.77859
5.89438
6.3653
8.3754
11.3141
14.2947
16.8216
19.1446
22.0462
26.195
31.4919
36.8582
40.6358
41.3817
38.5894
32.9256
25.8832
19.1032
13.7814
10.4443
9.08055
9.37742
10.8167
12.6147
13.7339
13.2184
10.827
7.55645
5.48663
6.67976
11.541
17.6791
20.3752
15.0389
0.76789
-16.9374
-26.355
-13.5002
31.2634
106.878
198.913
282.631
331.263
326.272
265.138
163.05
47.5683
-51.4649
-112.442
-128.544
-107.988
-68.5412
-29.3046
-3.54934
4.65776
-0.599265
-11.149
-19.37
-21.2659
-17.0573
-9.72988
-2.79147
1.50017
2.77507
2.13429
1.235
1.47703
3.61292
7.75732
13.5734
20.4309
27.4781
33.7092
38.1326
40.0557
39.3821
36.7498
33.3918
30.7363
29.9027
31.3148
34.606
38.8495
42.9976
46.3234
48.6684
50.4074
52.1771
54.5196
57.6186
61.2425
64.9031
68.1306
70.7175
72.8032
74.7573
76.9207
79.3441
81.6708
83.2478
83.4358
81.9726
79.1962
75.9791
73.358
72.0043
71.7916
71.7013
70.1634
65.7196
57.714
46.677
34.2005
22.3426
12.8391
6.49773
3.05232
1.50964
0.764152
0.129042
-0.490042
-0.8188
-0.629797
-0.0374598
0.539141
0.714373
0.517725
0.508129
1.47606
3.87615
7.35357
10.7219
12.4981
11.7441
8.73033
4.98497
2.62576
3.29154
7.25341
13.2128
18.9199
22.2857
22.3841
19.8151
16.2723
13.6048
12.9208
14.2043
16.5776
18.9603
20.6792
21.6781
22.276
22.7132
22.8383
22.1539
20.1747
16.8374
12.6704
8.59949
5.50278
3.78631
3.22885
3.17127
2.91887
2.11425
0.880659
-0.310677
-0.935604
-0.689507
0.402486
2.06063
3.92692
5.72145
7.29759
8.5933
9.53793
9.98961
9.74914
8.6488
6.67678
4.08095
1.39985
-0.613687
-1.18077
0.239552
3.69046
8.56962
13.6892
17.5761
18.9456
17.1868
12.6611
6.66316
1.02382
-2.51271
-2.89415
-0.0979883
4.94047
10.7736
16.0583
20.0684
22.887
25.2225
27.9742
31.7772
36.7329
42.4039
48.0012
52.6183
55.4042
55.6763
53.0534
47.6565
40.2985
32.4616
25.8887
21.8284
20.2814
19.7607
17.9167
12.8914
4.70347
-4.27218
-10.3141
-10.5648
-5.23433
1.7493
4.57073
-0.651218
-11.9984
-20.3621
-12.1554
24.3292
91.6368
178.761
262.59
315.491
316.181
259.065
157.574
39.6871
-62.5425
-124.812
-138.593
-112.171
-64.905
-17.9608
14.0116
26.8362
25.5024
19.2646
16.1564
19.5641
27.9282
36.8883
42.1871
41.7344
36.1
27.6866
19.3831
13.4542
11.0053
11.9549
15.2766
19.3458
22.3659
22.8735
20.2303
14.8943
8.28275
2.21714
-1.82242
-3.27259
-2.60867
-0.976489
0.43731
0.946701
0.556772
-0.233655
-0.837283
-0.929593
-0.565496
-0.0508924
0.298507
0.343126
0.153989
-0.0867942
-0.224698
-0.214983
-0.112341
-0.000809775
0.0717615
0.109444
0.135837
0.152341
0.12803
0.0314951
-0.12299
-0.258857
-0.275297
-0.123158
0.133901
0.327256
0.274933
-0.0878264
-0.624504
-1.03386
-1.01453
-0.477276
0.329082
0.887116
0.682186
-0.447409
-2.08239
-3.2847
-2.976
-0.477219
4.06336
9.60095
14.5628
17.5038
17.7341
15.6018
12.2832
9.18876
7.29468
6.74503
6.91942
6.90429
6.08815
4.54031
2.96294
2.25206
2.92687
4.76255
6.84775
8.04846
7.62854
5.68269
3.13329
1.27593
1.10373
2.76411
5.43828
7.71791
8.29889
6.65185
3.34111
-0.163217
-2.09353
-1.13669
2.99963
9.43793
16.4409
22.0341
24.6865
23.7981
19.8431
14.1508
8.43247
4.22962
2.46376
3.21863
5.80087
9.03614
11.6878
12.8565
12.2366
10.1644
7.46502
5.16457
4.16723
4.98747
7.60104
11.4416
15.5388
18.7688
20.1674
19.2313
16.1237
11.7017
7.32468
4.47076
4.26367
7.07182
12.3401
18.7483
24.664
28.7268
30.317
29.6911
27.7105
25.2956
22.9014
20.3299
17.0165
12.6378
7.64279
3.28882
1.0275
1.52674
3.95252
6.11489
5.62317
1.51122
-4.69056
-9.35429
-8.76889
-1.83531
8.21872
14.5709
10.242
-7.17205
-32.0609
-51.0873
-47.9955
-11.3151
58.5753
146.804
227.787
274.409
268.797
209.848
114.015
8.9334
-77.2147
-125.842
-133.322
-109.773
-72.5849
-38.2366
-16.2265
-7.38484
-6.40694
-6.48446
-3.32403
3.28892
10.5828
15.3192
16.0053
13.59
10.5306
9.07176
9.90013
11.9369
13.2502
12.409
9.41851
5.71062
3.26966
3.46622
6.29588
10.4367
14.0472
15.8176
15.6745
14.7705
14.8004
17.0538
21.7316
27.88
33.9411
38.5843
41.3557
42.8104
44.1022
46.3012
49.8389
54.3733
59.1023
63.2956
66.707
69.6321
72.6074
75.9668
79.5433
82.6991
84.6555
84.9166
83.5359
81.0833
78.3471
75.947
74.057
72.3504
70.1529
66.7044
61.4188
54.0774
44.9317
34.7043
24.4669
15.3842
8.36863
3.76983
1.26259
0.0333418
-0.781881
-1.61895
-2.23854
-1.88144
0.228152
4.30586
9.70234
15.0785
18.9926
20.5826
19.9609
18.1016
16.2964
15.4979
15.9194
17.0838
18.2385
18.8449
18.8435
18.5647
18.3977
18.4676
18.54
18.1957
17.132
15.3742
13.2558
11.1987
9.46034
8.03018
6.74469
5.52764
4.56883
4.28907
5.0842
7.00035
9.56116
11.8951
13.135
12.8867
11.4958
9.9308
9.30896
10.2963
12.7101
15.5612
17.5474
17.7506
16.1619
13.7267
11.8517
11.6177
13.1242
15.3455
16.6172
15.5239
11.7275
6.28012
1.226
-1.33377
-0.252179
4.08371
9.89473
14.8035
16.8946
15.5434
11.6468
7.18645
4.35809
4.66871
8.38412
14.5245
21.3628
27.1781
30.9325
32.5865
32.9307
33.0234
33.5087
34.165
33.9528
31.5957
26.4336
19.0833
11.4656
6.04609
4.5848
7.04976
11.3849
14.4338
13.6627
8.75287
2.03279
-2.74384
-2.80267
1.41038
5.70028
4.11556
-7.14733
-25.897
-42.5821
-42.9328
-14.152
47.8924
134.065
222.786
286.748
303.12
262.893
175.109
63.9172
-40.3726
-112.36
-140.005
-127.138
-89.5306
-46.934
-14.953
-0.196101
-0.157142
-6.93334
-12.3278
-11.7436
-5.37886
3.18153
9.68054
11.59
9.11119
4.61366
1.13317
0.843177
4.20893
10.0574
16.3429
21.1488
23.471
23.5052
22.3903
21.5699
22.0677
24.003
26.5783
28.5625
29.0491
28.0896
26.8227
26.9531
29.7923
35.366
42.1266
47.5296
49.2644
46.5247
40.6161
34.5094
31.5054
33.676
40.8931
50.9517
60.6977
67.5352
70.5042
70.4065
69.0214
67.9556
67.8236
68.1743
68.0743
66.8591
64.51
61.4339
57.8728
53.4459
47.2374
38.4491
27.21
14.9708
4.12773
-3.00104
-5.29641
-3.40769
0.579631
4.2061
5.83764
5.3424
3.90686
3.15915
4.14863
6.76883
9.90498
12.1436
12.5763
11.2308
8.94048
6.81872
5.71153
5.94667
7.44703
10.0159
13.5111
17.7536
22.2636
26.0927
27.9987
26.9794
22.9074
16.8631
10.8812
7.13984
6.9671
10.1875
15.1854
19.6886
21.8803
21.2604
18.8106
16.3936
15.7268
17.487
21.0028
24.6574
26.7402
26.2724
23.3908
19.1483
14.9104
11.708
9.87638
9.10271
8.77069
8.35801
7.67087
6.84015
6.15254
5.8569
6.04902
6.64754
7.40676
7.91703
7.60549
5.80863
1.98067
-3.98511
-11.462
-19.0245
-24.7552
-26.8962
-24.6076
-18.4774
-10.4801
-3.31206
0.664426
0.41272
-3.32007
-8.32037
-11.8786
-11.9677
-8.07794
-1.32394
6.18644
12.3639
15.9925
17.0083
16.1292
14.1377
11.3065
7.33689
1.82865
-5.07213
-12.348
-18.4164
-21.9482
-22.6838
-21.6528
-20.5383
-20.5089
-21.2953
-21.2672
-18.6877
-13.4771
-8.24692
-7.52457
-15.0553
-30.3728
-46.6975
-51.9843
-33.5153
15.5652
90.8543
175.524
244.788
274.726
251.868
179.231
75.907
-29.7963
-110.731
-150.297
-146.974
-112.554
-65.5279
-23.0706
4.7705
16.6658
17.6126
14.5969
12.8011
13.9888
17.1906
20.582
23.0974
24.8754
26.5881
28.4293
29.6301
28.8704
25.2775
19.2853
12.7288
8.04842
7.04664
9.91925
15.1177
20.1202
22.6845
21.9136
18.6015
14.7331
12.4492
13.0299
16.3866
21.2588
25.9551
29.2334
30.8899
31.7974
33.4021
36.9393
42.7432
49.983
56.9652
61.8834
63.6774
62.5861
60.0943
58.2502
58.6577
61.6411
66.044
69.8175
71.1389
69.4809
66.0269
63.1412
63.1042
66.7506
72.7492
77.9683
78.8091
72.8794
60.1772
43.1953
25.8968
12.0744
3.88754
1.24076
2.21246
4.21678
5.26022
4.68456
3.1189
1.7957
1.68569
2.9337
4.85194
6.3958
6.79767
5.98878
4.59725
3.56492
3.6283
4.95581
7.11658
9.3571
10.9995
11.736
11.6836
11.2182
10.7222
10.4035
10.2619
10.1731
9.99369
9.60977
8.9251
7.85273
6.37071
4.63311
3.04473
2.18851
2.57255
4.30024
6.86642
9.25882
10.3861
9.64397
7.30521
4.47103
2.55077
2.51101
4.29773
6.77013
8.21769
7.20852
3.32415
-2.61065
-8.92197
-13.8865
-16.5073
-16.8668
-15.9048
-14.7875
-14.2441
-14.2367
-14.1213
-13.1722
-11.1414
-8.51865
-6.33323
-5.5975
-6.69747
-9.06984
-11.3614
-12.015
-9.99977
-5.31719
0.975025
7.2361
11.9636
14.3853
14.6201
13.3617
11.3198
8.80014
5.7011
1.90766
-2.24571
-5.87014
-7.98474
-8.32723
-7.93553
-8.92536
-13.3402
-21.6285
-31.7616
-39.853
-42.314
-38.4925
-32.0858
-29.947
-38.2563
-57.7464
-80.7431
-92.3815
-76.4321
-23.5952
61.6995
159.85
241.629
278.966
256.411
178.04
66.4487
-45.8409
-128.747
-165.276
-156.013
-116.102
-66.8819
-26.5354
-3.94937
2.11973
-0.691386
-3.91503
-2.58445
3.44751
11.0625
16.7168
18.691
17.6598
15.705
14.7506
15.4915
17.3254
19.059
19.7473
19.1086
17.3956
15.0068
12.2378
9.356
6.85551
5.5782
6.48527
10.1557
16.3332
23.8605
31.1108
36.7038
40.1091
41.8013
42.9061
44.5734
47.4455
51.4921
56.2341
61.1489
65.9782
70.7701
75.6847
80.7407
85.6928
90.1142
93.6119
96.0187
97.4359
98.1049
98.2006
97.6777
96.2645
93.6017
89.4431
83.801
76.957
69.3354
61.3123
53.0704
44.5867
35.7697
26.6784
17.6944
9.52739
3.01212
-1.23042
-3.09956
-3.1118
-2.2022
-1.30118
-0.894512
-0.806606
-0.343013
1.26608
4.35639
8.54241
12.8285
16.0715
17.5408
17.254
15.89
14.3255
13.0765
11.994
10.4261
7.77426
4.11111
0.447956
-1.58702
-0.563025
3.86268
10.4983
16.9452
20.6271
20.0459
15.6187
9.62226
5.21206
4.96143
9.63111
17.7745
26.3694
32.1577
33.0407
28.885
21.4198
13.3653
7.27329
4.62897
5.54785
9.06571
13.744
18.2414
21.626
23.4142
23.4742
21.9459
19.2269
15.9545
12.8753
10.5747
9.1749
8.19447
6.72389
3.8975
-0.553484
-5.98215
-10.9701
-13.9213
-13.8223
-10.756
-5.85721
-0.697949
3.57558
6.86791
10.1458
14.8056
21.7486
30.701
40.1866
48.1738
53.0143
54.1137
51.9584
47.5412
41.6273
34.3954
25.7058
15.7672
5.62967
-3.00013
-8.65142
-11.1359
-11.9372
-13.4545
-17.3805
-23.2311
-28.1848
-28.7033
-23.2094
-14.1275
-7.58356
-10.2359
-24.5202
-44.9861
-58.3879
-48.5146
-4.14548
73.5941
168.518
253.458
300.044
290.071
223.33
118.192
4.62123
-87.2129
-137.658
-143.15
-114.822
-71.6317
-31.7311
-6.02374
3.7879
2.83042
-1.53268
-3.85425
-2.50352
0.953191
3.83773
4.39076
2.66456
0.0955896
-1.64957
-1.7018
-0.314395
1.55536
3.01159
3.81812
4.51005
6.0301
9.15807
14.0645
20.1995
26.5285
31.9643
35.7847
37.871
38.6985
39.1137
40.0006
41.9614
45.1263
49.1532
53.4153
57.3003
60.4971
63.1423
65.7534
68.9703
73.2183
78.4547
84.128
89.3852
93.438
95.9214
97.0706
97.6263
98.5057
100.383
103.372
106.941
110.109
111.817
111.312
108.383
103.346
96.8032
89.3117
81.1287
72.1753
62.2417
51.3299
39.9326
29.0634
19.9642
13.5964
10.1678
8.9675
8.65106
7.88422
6.03879
3.56667
1.81462
2.32729
5.97181
12.3408
19.7714
26.0066
29.1876
28.6843
25.3525
21.1012
18.0093
17.4443
19.6063
23.6711
28.3797
32.7105
36.267
39.2147
41.8786
44.2967
46.0309
46.3588
44.7288
41.1925
36.5355
32.0004
28.7369
27.2794
27.3462
28.0759
28.5641
28.3869
27.7995
27.4882
28.0212
29.3315
30.5623
30.402
27.7484
22.3431
15.0165
7.39636
1.22221
-2.37982
-3.29929
-2.34698
-0.759403
0.406647
0.67894
0.211552
-0.48484
-0.919872
-0.887406
-0.503527
-0.0542357
0.213644
0.223851
0.0669899
-0.101733
-0.175564
-0.14602
-0.0728335
-0.0143909
0.0208988
0.0663904
0.14425
0.216975
0.193086
-0.00173499
-0.330826
-0.605993
-0.559299
-0.0180193
0.911487
1.78943
2.01244
1.17092
-0.595685
-2.50427
-3.45675
-2.70429
-0.486028
1.82484
2.33783
-0.162196
-5.10908
-9.95732
-11.3428
-7.24631
1.01269
8.4011
8.25159
-3.70905
-25.2922
-46.2405
-50.7995
-24.1982
39.496
131.964
230.887
306.683
333.397
299.162
211.483
94.8225
-18.5705
-100.532
-136.439
-128.458
-91.8727
-46.9113
-10.2082
10.406
16.2044
13.9107
10.6959
10.5128
13.1913
16.0106
16.2568
13.1121
7.96678
3.32026
1.18994
2.03674
4.72882
7.38607
8.48741
7.59055
5.34364
2.91301
1.25019
0.64007
0.74715
1.06406
1.44203
2.35607
4.72581
9.37701
16.4466
25.0876
33.6885
40.5467
44.6798
46.3501
47.0044
48.6203
52.767
59.8481
68.9069
78.0817
85.4634
89.9131
91.4505
91.0813
90.237
90.1677
91.5852
94.6433
99.1201
104.583
110.407
115.69
119.26
119.895
116.756
109.802
99.9181
88.6336
77.5156
67.5686
58.957
51.1901
43.6307
36.0012
28.5836
22.0291
16.9452
13.5612
11.6867
10.9539
11.1225
12.1879
14.1906
16.8667
19.4334
20.7448
19.8136
16.4222
11.4343
6.54996
3.56441
3.49512
6.05257
9.76185
12.6906
13.4022
11.6301
8.32328
5.06682
3.2163
3.23011
4.55006
6.05947
6.82158
6.65538
6.21699
6.55259
8.39866
11.6489
15.3049
17.9431
18.4302
16.4835
12.7691
8.51122
4.86488
2.4287
1.16133
0.698369
0.812976
1.68433
3.78164
7.44134
12.4336
17.8358
22.3395
24.8354
24.9333
23.1045
20.3649
17.6999
15.5847
13.8781
12.1193
9.99789
7.6675
5.69243
4.67341
4.81569
5.74092
6.6806
6.9348
6.3056
5.23165
4.54302
4.995
6.86994
9.88
13.4051
16.8923
20.156
23.3968
26.9417
30.8727
34.77
37.7202
38.5988
36.5131
31.2328
23.4488
14.743
7.21688
2.81551
2.51937
5.72087
10.1597
12.6555
10.5162
3.05474
-7.62904
-17.2745
-21.5203
-18.5398
-10.7852
-4.50765
-6.72124
-20.7447
-42.6041
-60.6397
-59.3709
-26.5191
39.8511
127.712
213.358
269.327
274.881
224.522
130.661
19.1565
-80.3279
-144.931
-165.696
-148.556
-109.517
-66.8509
-34.0398
-16.2755
-11.2282
-12.7177
-14.8817
-14.7664
-12.5475
-9.99067
-8.52415
-8.15567
-7.67877
-5.74859
-1.96132
2.7817
6.79718
8.63764
7.9551
5.71553
3.68527
3.52298
5.99323
10.7013
16.4339
21.8648
26.2245
29.5893
32.6861
36.3638
41.0501
46.4854
51.8589
56.2449
59.0855
60.4607
61.0199
61.6437
63.043
65.5151
68.9651
73.1302
77.8327
83.0857
88.9873
95.4881
102.206
108.438
113.385
116.491
117.67
117.303
115.969
114.059
111.496
107.731
102.031
93.936
83.6205
71.9734
60.3125
49.8671
41.2801
34.3935
28.4418
22.5703
16.412
10.4053
5.64988
3.3391
4.04243
7.2272
11.3124
14.2835
14.5939
11.8996
7.23371
2.50706
-0.423703
-0.640788
1.45758
4.47276
6.81954
7.57297
6.87801
5.71599
5.20178
5.85647
7.30255
8.5612
8.75585
7.76986
6.4271
6.05139
7.64489
11.1732
15.4045
18.4379
18.6565
15.5806
10.1405
4.20599
-0.377978
-2.72154
-3.28164
-3.50986
-4.96213
-8.36606
-13.1547
-17.7126
-20.191
-19.4501
-15.6327
-10.0816
-4.66921
-0.903227
0.725801
0.839701
0.697602
1.43222
3.41471
6.079
8.28263
8.99557
7.93903
5.82708
4.07411
4.11046
6.65243
11.298
16.6562
20.9508
22.8084
21.8547
18.8502
15.3211
12.8814
12.5696
14.4896
17.8866
21.5799
24.5319
26.2985
27.1857
28.0749
30.0123
33.731
39.2813
45.894
52.1253
56.2511
56.8074
53.1256
45.682
36.1005
26.7292
19.8547
16.7995
17.281
19.4026
20.439
18.199
12.3584
4.99827
-0.177402
0.171185
6.71424
16.1723
22.1757
18.3964
2.74967
-19.5143
-35.9521
-31.1256
6.37591
77.1146
167.688
253.511
307.058
308.385
253.397
156.041
43.2989
-54.9032
-116.451
-133.908
-114.922
-76.693
-37.6224
-10.1554
2.29931
3.81967
1.51993
0.987545
3.88565
8.41412
11.6628
12.0542
10.3822
9.05192
10.2766
14.5169
20.1427
24.4396
25.2486
22.2054
16.8749
11.7902
9.04566
9.29114
11.6499
14.4878
16.4703
17.2462
17.4058
17.8583
19.1166
20.9846
22.8158
24.1055
24.9576
26.0691
28.2301
31.6895
35.8539
39.58
41.9261
42.8975
43.678
46.127
51.7631
60.7937
71.7642
82.0752
89.1412
91.598
89.9285
86.185
82.9534
82.0972
83.9013
87.0076
89.112
88.023
82.5553
72.8759
60.2479
46.415
32.992
21.1291
11.4906
4.39543
-0.0839239
-2.15569
-2.40071
-1.75041
-1.23647
-1.57078
-2.78005
-4.14942
-4.58048
-3.22233
-0.0430406
3.99517
7.29285
8.34366
6.46592
2.15715
-3.10153
-7.47315
-9.49774
-8.58737
-5.10512
-0.0794871
5.23789
9.75422
12.7482
13.9324
13.442
11.7949
9.79537
8.33081
8.06442
9.1313
11.0122
12.7153
13.2446
12.1494
9.86124
7.59196
6.78754
8.38165
12.2341
17.0771
21.0463
22.5634
21.1369
17.6601
14.0266
12.2266
13.3602
17.0595
21.6214
24.8001
24.8832
21.5266
15.9468
10.3775
7.06168
7.2614
10.7497
15.9959
20.9173
23.8089
24.0064
22.0017
19.0212
16.3351
14.6716
14.0124
13.82
13.5111
12.876
12.1973
12.0126
12.674
13.9823
15.1336
15.0505
12.9507
8.86548
3.82278
-0.437823
-2.12428
-0.143617
5.39384
13.1556
21.0777
27.1609
30.231
30.3328
28.5831
26.5478
25.422
25.3993
25.5519
24.3215
20.4257
13.7386
5.652
-1.37688
-4.97395
-4.15407
-0.0430764
4.52025
6.46046
4.2977
-0.761241
-5.3253
-5.91199
-1.57353
4.61464
6.54427
-1.39705
-19.8326
-41.5424
-52.5098
-37.3429
12.8883
94.1241
187.79
265.911
301.304
278.563
200.854
89.2261
-25.3564
-113.706
-158.638
-159.46
-129.376
-87.8033
-51.6802
-29.7111
-21.5266
-21.049
-21.4879
-19.1273
-14.2983
-9.7566
-8.02701
-9.50556
-12.2998
-13.587
-11.4199
-5.82865
1.33495
7.55613
11.0324
11.4865
10.0758
8.59946
8.53915
10.4412
13.8645
17.7826
21.136
23.2507
23.9927
23.6938
22.9661
22.5031
22.9056
24.5369
27.4151
31.1875
35.2314
38.8853
41.7338
43.817
45.6501
48.0189
51.6317
56.7825
63.1795
70.0163
76.2516
80.9774
83.7311
84.6393
84.3486
83.7721
83.7327
84.6175
86.1643
87.473
87.2692
84.3523
78.0669
68.6025
56.9771
44.6915
33.2009
23.441
15.6271
9.40249
4.23592
-0.165237
-3.65338
-5.75556
-6.02729
-4.43506
-1.54321
1.60955
3.89151
4.53068
3.41963
1.13176
-1.35037
-3.06193
-3.44438
-2.53128
-0.866894
0.787948
1.81906
2.025
1.67027
1.31064
1.4836
2.42183
3.93645
5.52915
6.67063
7.08893
6.90207
6.51566
6.3444
6.52712
6.81791
6.73643
5.90163
4.35053
2.63618
1.61885
2.04426
4.13529
7.42605
10.9356
13.5911
14.6791
14.1014
12.3395
10.1919
8.45139
7.67936
8.12654
9.75136
12.2519
15.0845
17.5235
18.8401
18.6047
16.9862
14.8426
13.4531
13.9361
16.6183
20.7207
24.608
26.5493
25.6248
22.2828
18.2049
15.5043
15.6596
18.7483
23.3918
27.436
29.0007
27.3505
23.164
18.1242
14.0976
12.3419
13.0977
15.6699
18.8556
21.4589
22.6734
22.2499
20.4784
18.0551
15.8779
14.7908
15.3139
17.4435
20.6319
24.0022
26.7396
28.486
29.5315
30.6892
32.8985
36.7478
42.1411
48.2501
53.7462
57.1951
57.4694
54.0772
47.357
38.4942
29.2968
21.6912
17.0161
15.3825
15.4859
15.1525
12.5387
7.42769
1.79385
-0.98184
1.85194
10.1199
19.6609
23.6647
